 LCModel (Version 6.3-0D) Copyright: S.W. Provencher.          Ref.: Magn. Reson. Med. 30:672-679 (1993).                
 S04_PRESS_35_act
 Data of: Dept of Radiology, The Johns Hopkins University School of Medicine
 24-February-2020  09:50
 32 lines in following concentration table = NCONC+1
    Conc.  %SD /Cr+PCr  Metabolite                                         
    0.451  90%   0.338 Asc                                                 
    4.874  15%   3.652 Asp                                                 
    3.354  14%   2.513 Cr                                                  
    1.536  40%   1.151 GABA                                                
    1.797   4%   1.346 GPC                                                 
    1.520   9%   1.139 GSH                                                 
    1.908  31%   1.430 Gln                                                 
   15.458   5%  11.581 Glu                                                 
    9.957   4%   7.459 Ins                                                 
    0.000 999%   0.000 Lac                                                 
   15.732   3%  11.786 NAA                                                 
    0.384 110%   0.288 NAAG                                                
    0.000 999%   0.000 PCh                                                 
    7.325   7%   5.487 PCr                                                 
    5.761  13%   4.316 PE                                                  
    0.579  13%   0.434 Scyllo                                              
    1.276  49%   0.956 Tau                                                 
    0.000 999%   0.000 -CrCH2                                              
    1.797   4%   1.346 PCh+GPC                                             
   10.678   2%   8.000 Cr+PCr                                              
   16.116   2%  12.074 NAA+NAAG                                            
   17.366   6%  13.010 Glu+Gln                                             
    6.524  77%   4.888 Lip13a                                              
    1.119 123%   0.838 Lip13b                                              
    0.248 752%   0.185 Lip09                                               
    9.016  19%   6.755 MM09                                                
    4.613  15%   3.456 Lip20                                               
   11.271  22%   8.444 MM20                                                
    4.936  21%   3.698 MM12                                                
    6.687  32%   5.009 MM14                                                
    3.673  37%   2.752 MM17                                                
   6 lines in following misc. output table
  FWHM = 0.069 ppm    S/N =  50                                            
  Data shift =-0.019 ppm                                                   
  Ph: -27 deg      -6.6 deg/ppm                                            
  alphaB,S = 2.8E-02,   1.0E+02                                            
   24 spline knots.   Ns = 8(2)                                            
  ( 8) 6 infls.   ( 3) 3 extrs.                                            
  917 points on ppm-axis = NY
      4.000000     3.996178     3.992356     3.988534     3.984712     3.980890     3.977067     3.973245     3.969423     3.965601
      3.961779     3.957957     3.954135     3.950313     3.946491     3.942669     3.938847     3.935024     3.931202     3.927380
      3.923558     3.919736     3.915914     3.912092     3.908270     3.904448     3.900626     3.896804     3.892982     3.889159
      3.885337     3.881515     3.877693     3.873871     3.870049     3.866227     3.862405     3.858583     3.854761     3.850939
      3.847116     3.843294     3.839472     3.835650     3.831828     3.828006     3.824184     3.820362     3.816540     3.812718
      3.808896     3.805073     3.801251     3.797429     3.793607     3.789785     3.785963     3.782141     3.778319     3.774497
      3.770675     3.766853     3.763031     3.759208     3.755386     3.751564     3.747742     3.743920     3.740098     3.736276
      3.732454     3.728632     3.724810     3.720988     3.717165     3.713343     3.709521     3.705699     3.701877     3.698055
      3.694233     3.690411     3.686589     3.682767     3.678945     3.675122     3.671300     3.667478     3.663656     3.659834
      3.656012     3.652190     3.648368     3.644546     3.640724     3.636902     3.633080     3.629257     3.625435     3.621613
      3.617791     3.613969     3.610147     3.606325     3.602503     3.598681     3.594859     3.591037     3.587214     3.583392
      3.579570     3.575748     3.571926     3.568104     3.564282     3.560460     3.556638     3.552816     3.548994     3.545171
      3.541349     3.537527     3.533705     3.529883     3.526061     3.522239     3.518417     3.514595     3.510773     3.506951
      3.503129     3.499306     3.495484     3.491662     3.487840     3.484018     3.480196     3.476374     3.472552     3.468730
      3.464908     3.461086     3.457263     3.453441     3.449619     3.445797     3.441975     3.438153     3.434331     3.430509
      3.426687     3.422865     3.419043     3.415220     3.411398     3.407576     3.403754     3.399932     3.396110     3.392288
      3.388466     3.384644     3.380822     3.377000     3.373178     3.369355     3.365533     3.361711     3.357889     3.354067
      3.350245     3.346423     3.342601     3.338779     3.334957     3.331135     3.327312     3.323490     3.319668     3.315846
      3.312024     3.308202     3.304380     3.300558     3.296736     3.292914     3.289092     3.285269     3.281447     3.277625
      3.273803     3.269981     3.266159     3.262337     3.258515     3.254693     3.250871     3.247049     3.243227     3.239404
      3.235582     3.231760     3.227938     3.224116     3.220294     3.216472     3.212650     3.208828     3.205006     3.201184
      3.197361     3.193539     3.189717     3.185895     3.182073     3.178251     3.174429     3.170607     3.166785     3.162963
      3.159141     3.155318     3.151496     3.147674     3.143852     3.140030     3.136208     3.132386     3.128564     3.124742
      3.120920     3.117098     3.113276     3.109453     3.105631     3.101809     3.097987     3.094165     3.090343     3.086521
      3.082699     3.078877     3.075055     3.071233     3.067410     3.063588     3.059766     3.055944     3.052122     3.048300
      3.044478     3.040656     3.036834     3.033012     3.029190     3.025367     3.021545     3.017723     3.013901     3.010079
      3.006257     3.002435     2.998613     2.994791     2.990969     2.987147     2.983325     2.979502     2.975680     2.971858
      2.968036     2.964214     2.960392     2.956570     2.952748     2.948926     2.945104     2.941282     2.937459     2.933637
      2.929815     2.925993     2.922171     2.918349     2.914527     2.910705     2.906883     2.903061     2.899239     2.895416
      2.891594     2.887772     2.883950     2.880128     2.876306     2.872484     2.868662     2.864840     2.861018     2.857196
      2.853374     2.849551     2.845729     2.841907     2.838085     2.834263     2.830441     2.826619     2.822797     2.818975
      2.815153     2.811331     2.807508     2.803686     2.799864     2.796042     2.792220     2.788398     2.784576     2.780754
      2.776932     2.773110     2.769288     2.765465     2.761643     2.757821     2.753999     2.750177     2.746355     2.742533
      2.738711     2.734889     2.731067     2.727245     2.723423     2.719600     2.715778     2.711956     2.708134     2.704312
      2.700490     2.696668     2.692846     2.689024     2.685202     2.681380     2.677557     2.673735     2.669913     2.666091
      2.662269     2.658447     2.654625     2.650803     2.646981     2.643159     2.639337     2.635514     2.631692     2.627870
      2.624048     2.620226     2.616404     2.612582     2.608760     2.604938     2.601116     2.597294     2.593472     2.589649
      2.585827     2.582005     2.578183     2.574361     2.570539     2.566717     2.562895     2.559073     2.555251     2.551429
      2.547606     2.543784     2.539962     2.536140     2.532318     2.528496     2.524674     2.520852     2.517030     2.513208
      2.509386     2.505563     2.501741     2.497919     2.494097     2.490275     2.486453     2.482631     2.478809     2.474987
      2.471165     2.467343     2.463521     2.459698     2.455876     2.452054     2.448232     2.444410     2.440588     2.436766
      2.432944     2.429122     2.425300     2.421478     2.417655     2.413833     2.410011     2.406189     2.402367     2.398545
      2.394723     2.390901     2.387079     2.383257     2.379435     2.375612     2.371790     2.367968     2.364146     2.360324
      2.356502     2.352680     2.348858     2.345036     2.341214     2.337392     2.333570     2.329747     2.325925     2.322103
      2.318281     2.314459     2.310637     2.306815     2.302993     2.299171     2.295349     2.291527     2.287704     2.283882
      2.280060     2.276238     2.272416     2.268594     2.264772     2.260950     2.257128     2.253306     2.249484     2.245661
      2.241839     2.238017     2.234195     2.230373     2.226551     2.222729     2.218907     2.215085     2.211263     2.207441
      2.203619     2.199796     2.195974     2.192152     2.188330     2.184508     2.180686     2.176864     2.173042     2.169220
      2.165398     2.161576     2.157753     2.153931     2.150109     2.146287     2.142465     2.138643     2.134821     2.130999
      2.127177     2.123355     2.119533     2.115710     2.111888     2.108066     2.104244     2.100422     2.096600     2.092778
      2.088956     2.085134     2.081312     2.077490     2.073668     2.069845     2.066023     2.062201     2.058379     2.054557
      2.050735     2.046913     2.043091     2.039269     2.035447     2.031625     2.027802     2.023980     2.020158     2.016336
      2.012514     2.008692     2.004870     2.001048     1.997226     1.993404     1.989582     1.985759     1.981937     1.978115
      1.974293     1.970471     1.966649     1.962827     1.959005     1.955183     1.951361     1.947539     1.943717     1.939894
      1.936072     1.932250     1.928428     1.924606     1.920784     1.916962     1.913140     1.909318     1.905496     1.901674
      1.897851     1.894029     1.890207     1.886385     1.882563     1.878741     1.874919     1.871097     1.867275     1.863453
      1.859631     1.855808     1.851986     1.848164     1.844342     1.840520     1.836698     1.832876     1.829054     1.825232
      1.821410     1.817588     1.813766     1.809943     1.806121     1.802299     1.798477     1.794655     1.790833     1.787011
      1.783189     1.779367     1.775545     1.771723     1.767900     1.764078     1.760256     1.756434     1.752612     1.748790
      1.744968     1.741146     1.737324     1.733502     1.729680     1.725857     1.722035     1.718213     1.714391     1.710569
      1.706747     1.702925     1.699103     1.695281     1.691459     1.687637     1.683815     1.679992     1.676170     1.672348
      1.668526     1.664704     1.660882     1.657060     1.653238     1.649416     1.645594     1.641772     1.637949     1.634127
      1.630305     1.626483     1.622661     1.618839     1.615017     1.611195     1.607373     1.603551     1.599729     1.595906
      1.592084     1.588262     1.584440     1.580618     1.576796     1.572974     1.569152     1.565330     1.561508     1.557686
      1.553864     1.550041     1.546219     1.542397     1.538575     1.534753     1.530931     1.527109     1.523287     1.519465
      1.515643     1.511821     1.507998     1.504176     1.500354     1.496532     1.492710     1.488888     1.485066     1.481244
      1.477422     1.473600     1.469778     1.465955     1.462133     1.458311     1.454489     1.450667     1.446845     1.443023
      1.439201     1.435379     1.431557     1.427735     1.423913     1.420090     1.416268     1.412446     1.408624     1.404802
      1.400980     1.397158     1.393336     1.389514     1.385692     1.381870     1.378047     1.374225     1.370403     1.366581
      1.362759     1.358937     1.355115     1.351293     1.347471     1.343649     1.339827     1.336004     1.332182     1.328360
      1.324538     1.320716     1.316894     1.313072     1.309250     1.305428     1.301606     1.297784     1.293962     1.290139
      1.286317     1.282495     1.278673     1.274851     1.271029     1.267207     1.263385     1.259563     1.255741     1.251919
      1.248096     1.244274     1.240452     1.236630     1.232808     1.228986     1.225164     1.221342     1.217520     1.213698
      1.209876     1.206053     1.202231     1.198409     1.194587     1.190765     1.186943     1.183121     1.179299     1.175477
      1.171655     1.167833     1.164011     1.160188     1.156366     1.152544     1.148722     1.144900     1.141078     1.137256
      1.133434     1.129612     1.125790     1.121968     1.118145     1.114323     1.110501     1.106679     1.102857     1.099035
      1.095213     1.091391     1.087569     1.083747     1.079925     1.076102     1.072280     1.068458     1.064636     1.060814
      1.056992     1.053170     1.049348     1.045526     1.041704     1.037882     1.034060     1.030237     1.026415     1.022593
      1.018771     1.014949     1.011127     1.007305     1.003483     0.999661     0.995839     0.992016     0.988194     0.984372
      0.980550     0.976728     0.972906     0.969083     0.965261     0.961439     0.957617     0.953795     0.949973     0.946151
      0.942328     0.938506     0.934684     0.930862     0.927040     0.923218     0.919396     0.915573     0.911751     0.907929
      0.904107     0.900285     0.896463     0.892641     0.888818     0.884996     0.881174     0.877352     0.873530     0.869708
      0.865885     0.862063     0.858241     0.854419     0.850597     0.846775     0.842953     0.839130     0.835308     0.831486
      0.827664     0.823842     0.820020     0.816198     0.812375     0.808553     0.804731     0.800909     0.797087     0.793265
      0.789443     0.785620     0.781798     0.777976     0.774154     0.770332     0.766510     0.762688     0.758865     0.755043
      0.751221     0.747399     0.743577     0.739755     0.735932     0.732110     0.728288     0.724466     0.720644     0.716822
      0.713000     0.709177     0.705355     0.701533     0.697711     0.693889     0.690067     0.686245     0.682422     0.678600
      0.674778     0.670956     0.667134     0.663312     0.659490     0.655667     0.651845     0.648023     0.644201     0.640379
      0.636557     0.632734     0.628912     0.625090     0.621268     0.617446     0.613624     0.609802     0.605979     0.602157
      0.598335     0.594513     0.590691     0.586869     0.583047     0.579224     0.575402     0.571580     0.567758     0.563936
      0.560114     0.556292     0.552469     0.548647     0.544825     0.541003     0.537181     0.533359     0.529536     0.525714
      0.521892     0.518070     0.514248     0.510426     0.506604     0.502781     0.498959
 NY phased data points follow
   5.71925E-01  6.11314E-01  5.59801E-01  5.52510E-01  5.80373E-01  5.68076E-01  6.23780E-01  5.72148E-01  5.45786E-01  6.02995E-01
   5.79754E-01  6.09297E-01  6.02839E-01  6.09775E-01  6.44737E-01  6.60947E-01  7.12256E-01  7.85311E-01  8.25610E-01  8.94029E-01
   9.30827E-01  9.83210E-01  1.03121E+00  1.07184E+00  1.09901E+00  1.12866E+00  1.18898E+00  1.21646E+00  1.21943E+00  1.21993E+00
   1.22293E+00  1.25445E+00  1.22016E+00  1.17319E+00  1.15184E+00  1.10683E+00  1.07249E+00  1.00980E+00  9.77162E-01  9.23470E-01
   8.71913E-01  8.57850E-01  8.02692E-01  7.69794E-01  7.34487E-01  6.93962E-01  6.67510E-01  6.61107E-01  6.34478E-01  6.39823E-01
   5.99141E-01  6.23210E-01  5.99483E-01  5.82420E-01  6.20464E-01  5.91800E-01  5.74749E-01  6.07263E-01  6.09885E-01  5.96203E-01
   6.34913E-01  6.76362E-01  6.56643E-01  6.68383E-01  6.96114E-01  7.40810E-01  7.53244E-01  7.56227E-01  7.37556E-01  7.56665E-01
   7.80424E-01  7.81089E-01  7.58991E-01  7.49949E-01  7.57890E-01  7.84098E-01  7.40990E-01  7.30536E-01  7.60001E-01  7.68009E-01
   7.45927E-01  7.19931E-01  7.14601E-01  6.78674E-01  6.77891E-01  6.73646E-01  6.68119E-01  6.44829E-01  6.53440E-01  6.72432E-01
   6.46802E-01  6.59378E-01  6.56045E-01  6.53106E-01  6.47317E-01  6.73085E-01  6.66999E-01  6.77411E-01  6.53046E-01  6.81471E-01
   7.00891E-01  6.61644E-01  6.62829E-01  6.40194E-01  6.46060E-01  6.28954E-01  6.23031E-01  5.81874E-01  6.01365E-01  5.92289E-01
   5.80525E-01  6.04068E-01  5.70201E-01  5.94906E-01  6.17094E-01  5.74480E-01  6.19222E-01  6.50361E-01  6.42047E-01  6.80212E-01
   7.01616E-01  7.19438E-01  7.21178E-01  7.50407E-01  7.39993E-01  7.51139E-01  7.56003E-01  7.32867E-01  7.04910E-01  7.08280E-01
   6.66571E-01  6.46928E-01  6.37506E-01  5.93997E-01  5.74950E-01  5.63128E-01  5.42818E-01  4.91102E-01  4.89378E-01  4.25300E-01
   4.21449E-01  4.17534E-01  4.11712E-01  4.09622E-01  4.05390E-01  3.76628E-01  3.74890E-01  3.99776E-01  3.66481E-01  3.78449E-01
   3.88503E-01  3.67732E-01  3.39586E-01  3.87664E-01  3.51328E-01  3.40139E-01  3.73875E-01  3.49883E-01  3.79119E-01  3.63335E-01
   3.35406E-01  3.32769E-01  3.45286E-01  3.66663E-01  3.61905E-01  3.58014E-01  3.57027E-01  3.41800E-01  3.36601E-01  3.53478E-01
   3.81912E-01  3.80331E-01  3.78714E-01  3.65883E-01  3.76655E-01  3.81593E-01  4.07261E-01  3.83345E-01  3.78446E-01  3.74734E-01
   3.85538E-01  3.80102E-01  3.95136E-01  3.72850E-01  3.93059E-01  3.75034E-01  3.85369E-01  3.92704E-01  3.88241E-01  4.02811E-01
   3.66820E-01  4.02711E-01  4.25833E-01  4.49379E-01  4.45838E-01  4.66656E-01  4.84105E-01  4.72579E-01  4.88464E-01  5.05317E-01
   5.29550E-01  5.43313E-01  5.80957E-01  5.98962E-01  6.71068E-01  6.62580E-01  7.52468E-01  7.93637E-01  8.26097E-01  8.66077E-01
   8.76323E-01  8.78186E-01  9.16136E-01  9.22970E-01  9.47185E-01  9.41105E-01  9.04176E-01  8.94854E-01  9.21835E-01  9.10557E-01
   8.77235E-01  8.36756E-01  7.88520E-01  7.75469E-01  7.14481E-01  6.63990E-01  6.09844E-01  5.93153E-01  5.37477E-01  5.23763E-01
   4.78519E-01  4.85836E-01  4.55942E-01  4.58763E-01  4.23325E-01  4.00121E-01  3.87496E-01  4.03683E-01  3.69607E-01  3.67396E-01
   3.62695E-01  3.70059E-01  3.80305E-01  3.44707E-01  3.37653E-01  3.56297E-01  3.61673E-01  3.91706E-01  4.08468E-01  4.02515E-01
   4.71015E-01  5.53023E-01  6.19955E-01  6.86389E-01  7.58359E-01  8.63843E-01  9.41998E-01  1.03379E+00  1.07001E+00  1.14644E+00
   1.15863E+00  1.19534E+00  1.18910E+00  1.20088E+00  1.23057E+00  1.21629E+00  1.20112E+00  1.20978E+00  1.16836E+00  1.12599E+00
   1.07465E+00  9.45300E-01  9.11358E-01  8.05251E-01  7.22359E-01  6.72778E-01  6.37678E-01  5.53126E-01  5.05165E-01  4.43941E-01
   4.21476E-01  3.94785E-01  3.87811E-01  3.75383E-01  3.69684E-01  3.38903E-01  2.98816E-01  3.06350E-01  2.82926E-01  2.63397E-01
   2.68519E-01  2.48646E-01  2.43647E-01  1.99939E-01  2.26675E-01  2.01336E-01  2.04999E-01  2.16458E-01  2.24247E-01  1.90683E-01
   2.15979E-01  1.72816E-01  1.65694E-01  1.71207E-01  1.55824E-01  1.67377E-01  1.58592E-01  1.69056E-01  1.68537E-01  1.35159E-01
   1.73340E-01  1.78639E-01  1.73584E-01  1.77705E-01  1.64958E-01  1.70480E-01  1.86686E-01  1.69151E-01  1.88906E-01  2.06102E-01
   2.13154E-01  2.11609E-01  2.20280E-01  2.59502E-01  2.45074E-01  2.28604E-01  2.24364E-01  2.23255E-01  2.22868E-01  2.47307E-01
   2.61207E-01  2.73992E-01  2.92102E-01  2.94075E-01  2.59726E-01  2.69261E-01  2.71551E-01  2.40309E-01  2.54417E-01  2.56412E-01
   2.34495E-01  2.01412E-01  2.36339E-01  2.16918E-01  1.96386E-01  2.04609E-01  1.96888E-01  1.69737E-01  1.71921E-01  1.85575E-01
   1.46228E-01  1.68169E-01  1.87833E-01  1.81296E-01  1.98411E-01  1.95525E-01  1.88394E-01  1.96102E-01  2.52041E-01  2.13280E-01
   2.68835E-01  2.45560E-01  2.51631E-01  2.76217E-01  3.09019E-01  3.11007E-01  3.37178E-01  3.45064E-01  3.98748E-01  3.70032E-01
   4.07427E-01  4.02100E-01  3.90902E-01  3.81236E-01  3.88976E-01  4.00227E-01  4.11755E-01  4.08123E-01  4.12807E-01  4.15789E-01
   3.97607E-01  3.95372E-01  3.91390E-01  3.76727E-01  3.62063E-01  3.63345E-01  3.13675E-01  3.24989E-01  3.18613E-01  3.06373E-01
   2.94339E-01  3.18210E-01  2.85096E-01  3.04489E-01  3.04179E-01  2.95614E-01  3.27002E-01  3.46577E-01  3.24452E-01  3.56488E-01
   3.52316E-01  3.86555E-01  3.75686E-01  3.89523E-01  4.14658E-01  4.26231E-01  4.60262E-01  4.74232E-01  4.68126E-01  4.94306E-01
   5.19922E-01  5.40197E-01  5.16813E-01  5.48200E-01  5.39438E-01  5.21907E-01  5.51970E-01  5.61439E-01  5.40045E-01  5.35396E-01
   5.29815E-01  5.09374E-01  5.21492E-01  4.92474E-01  5.17461E-01  4.82952E-01  5.16727E-01  4.99619E-01  5.50771E-01  5.52095E-01
   5.83353E-01  6.16439E-01  6.20911E-01  6.33870E-01  6.60093E-01  6.90379E-01  6.82771E-01  6.77998E-01  6.99957E-01  7.06729E-01
   6.40954E-01  6.73882E-01  6.97555E-01  6.95066E-01  6.99917E-01  6.60336E-01  6.42821E-01  6.59682E-01  6.38008E-01  6.13285E-01
   6.28548E-01  6.17886E-01  5.97946E-01  5.81909E-01  6.26754E-01  6.17057E-01  5.95988E-01  6.15578E-01  6.36174E-01  5.87732E-01
   6.04244E-01  6.20200E-01  6.15796E-01  6.15549E-01  5.85631E-01  5.91578E-01  5.59528E-01  5.85047E-01  5.38090E-01  5.47428E-01
   5.40500E-01  5.28621E-01  5.01273E-01  5.16885E-01  5.04876E-01  4.79997E-01  5.11200E-01  4.95771E-01  4.80464E-01  5.04701E-01
   4.91798E-01  5.17960E-01  5.05573E-01  5.09422E-01  5.20149E-01  5.06738E-01  5.30707E-01  5.13216E-01  5.02709E-01  5.17210E-01
   5.34443E-01  5.47416E-01  5.20576E-01  5.76673E-01  5.67897E-01  5.79422E-01  6.05164E-01  6.02383E-01  6.12831E-01  6.03343E-01
   6.42148E-01  6.55455E-01  6.68597E-01  6.77670E-01  7.01051E-01  6.89928E-01  7.07991E-01  7.17813E-01  7.48980E-01  7.34929E-01
   7.60359E-01  7.84916E-01  8.19438E-01  8.17906E-01  8.25113E-01  8.72205E-01  9.82638E-01  1.06198E+00  1.15717E+00  1.29316E+00
   1.44329E+00  1.54853E+00  1.69682E+00  1.79491E+00  1.86668E+00  1.91032E+00  1.96451E+00  1.98369E+00  2.00169E+00  1.97788E+00
   1.96584E+00  1.91464E+00  1.89095E+00  1.86725E+00  1.80105E+00  1.69102E+00  1.55839E+00  1.42003E+00  1.30104E+00  1.16674E+00
   1.01699E+00  9.30174E-01  8.26085E-01  7.42635E-01  6.88561E-01  6.04183E-01  5.71210E-01  5.09497E-01  4.49673E-01  4.41218E-01
   3.99188E-01  3.82548E-01  3.48383E-01  3.28796E-01  3.31118E-01  2.95449E-01  2.87882E-01  2.52371E-01  2.17029E-01  2.64997E-01
   2.54933E-01  2.27942E-01  1.98088E-01  2.15357E-01  2.35172E-01  2.36780E-01  1.98315E-01  2.16759E-01  1.94128E-01  2.07581E-01
   1.94691E-01  2.08352E-01  2.20913E-01  2.10835E-01  1.85268E-01  2.02046E-01  1.65499E-01  1.55784E-01  1.83464E-01  1.86999E-01
   1.69179E-01  2.02806E-01  2.15314E-01  2.27767E-01  1.64174E-01  1.94547E-01  1.93975E-01  1.79554E-01  1.83444E-01  2.00697E-01
   2.03629E-01  1.87057E-01  1.55907E-01  1.63024E-01  1.84898E-01  2.00070E-01  2.09149E-01  1.84839E-01  1.61747E-01  1.99221E-01
   1.80639E-01  1.87196E-01  1.78602E-01  1.99707E-01  1.90483E-01  1.80258E-01  1.86140E-01  2.01879E-01  1.57010E-01  1.85579E-01
   1.93025E-01  1.86388E-01  1.74726E-01  1.51878E-01  1.83469E-01  1.89941E-01  1.95494E-01  2.09861E-01  1.66688E-01  1.57476E-01
   2.17260E-01  1.89982E-01  2.22024E-01  1.66159E-01  2.03966E-01  1.94213E-01  1.99557E-01  2.28731E-01  1.91748E-01  2.09543E-01
   2.02269E-01  2.00623E-01  2.30383E-01  1.82860E-01  2.16958E-01  1.96093E-01  2.28130E-01  2.10680E-01  2.15555E-01  1.81810E-01
   2.22578E-01  2.09475E-01  1.74790E-01  1.99721E-01  1.97486E-01  2.00760E-01  1.81265E-01  1.80553E-01  1.85571E-01  1.81597E-01
   1.78784E-01  1.76238E-01  1.85496E-01  1.73826E-01  1.64661E-01  1.81867E-01  1.64887E-01  1.77297E-01  1.78862E-01  1.61023E-01
   1.60847E-01  1.89506E-01  1.82601E-01  1.67294E-01  1.61550E-01  1.94154E-01  1.86902E-01  1.65536E-01  1.69583E-01  2.05690E-01
   2.24044E-01  1.74087E-01  2.30293E-01  2.24585E-01  2.23281E-01  1.94019E-01  1.88642E-01  2.38521E-01  2.26618E-01  2.20837E-01
   2.30893E-01  2.36049E-01  2.61695E-01  2.23137E-01  2.24243E-01  2.59375E-01  2.28683E-01  2.49458E-01  2.67637E-01  2.49719E-01
   2.70106E-01  2.57352E-01  2.44194E-01  2.84922E-01  2.79416E-01  2.57187E-01  3.00091E-01  2.69149E-01  2.76914E-01  2.64035E-01
   2.88765E-01  2.59869E-01  2.79245E-01  2.65899E-01  2.59496E-01  2.54223E-01  2.63466E-01  2.76139E-01  2.46668E-01  2.41502E-01
   2.45160E-01  2.49393E-01  2.10202E-01  2.58525E-01  2.35203E-01  2.36218E-01  2.08384E-01  1.94782E-01  2.05056E-01  1.91816E-01
   1.99839E-01  1.94738E-01  2.17201E-01  2.15843E-01  1.87579E-01  1.92142E-01  2.23190E-01  1.92752E-01  1.88251E-01  1.93874E-01
   2.02014E-01  1.73345E-01  1.63240E-01  1.83667E-01  1.70123E-01  1.60899E-01  1.98888E-01  1.51417E-01  1.83365E-01  1.63856E-01
   1.60013E-01  1.76618E-01  1.68269E-01  1.54205E-01  1.88215E-01  1.57760E-01  1.19712E-01  1.65728E-01  1.04700E-01  1.70721E-01
   1.32820E-01  9.98278E-02  1.21655E-01  1.25914E-01  9.09737E-02  1.21787E-01  1.22769E-01  8.41860E-02  8.14959E-02  5.85222E-02
   2.82878E-02  7.27105E-02  4.25129E-02  2.25291E-02  4.46691E-02  5.68792E-02  4.45994E-02  3.21997E-02  2.84699E-02  3.38936E-02
   3.37121E-02  1.02142E-02 -1.75708E-02  1.92450E-02  1.27209E-02  2.81472E-02  2.77946E-02  2.71144E-02  2.18182E-02  1.27799E-02
   2.81647E-02  2.79547E-02  2.28107E-02  2.35555E-02  2.74125E-02  1.76379E-02  4.05609E-02  3.95303E-02  3.59048E-02  6.27792E-02
   5.04968E-02  6.58839E-02  6.86289E-02  6.26491E-02  8.74287E-02  1.15299E-01  7.76155E-02  1.19344E-01  1.36338E-01  1.38817E-01
   1.37953E-01  1.55935E-01  1.37264E-01  1.75599E-01  1.82726E-01  1.54409E-01  1.66862E-01  1.71137E-01  1.90319E-01  2.24939E-01
   2.24670E-01  2.42269E-01  2.24580E-01  2.26904E-01  2.46398E-01  2.43000E-01  2.61740E-01  2.46356E-01  2.14990E-01  2.33386E-01
   2.24828E-01  2.68170E-01  2.22272E-01  2.45069E-01  2.10454E-01  2.01534E-01  2.51610E-01  2.24936E-01  2.21019E-01  1.98358E-01
   1.95022E-01  1.82596E-01  1.48984E-01  1.75758E-01  1.55158E-01  1.45308E-01  1.56202E-01  1.41473E-01  1.48985E-01  1.09559E-01
   1.16199E-01  1.15370E-01  8.11498E-02  7.94473E-02  9.86010E-02  7.36742E-02  5.40036E-02  5.51160E-02  6.27547E-02  4.06593E-02
   4.20548E-02  3.99822E-02  3.65220E-02  3.16129E-02  2.52161E-02  3.27922E-02 -7.13728E-05  2.30399E-02 -6.41484E-03  2.78589E-02
   1.43990E-02  5.12264E-03 -1.79452E-02  1.54877E-02  1.31537E-02 -2.51669E-03 -8.62155E-03 -1.31807E-02 -1.66910E-02 -2.70317E-02
  -1.37747E-03 -1.97081E-02 -3.89817E-03 -4.79319E-03 -2.35817E-02 -1.08742E-02  7.66816E-04 -2.94304E-02 -1.90579E-02 -2.05260E-02
  -4.20006E-02 -3.86058E-02 -5.32669E-02 -3.45214E-02 -5.07943E-02 -2.47559E-02 -4.67729E-02 -4.13881E-02 -3.05514E-02 -3.55976E-02
  -5.02263E-02 -3.44262E-02 -2.41846E-02 -4.48772E-02 -2.57198E-02 -4.28669E-02 -4.73692E-02 -3.28593E-02 -4.11180E-02 -4.30946E-02
  -3.31333E-02 -6.88288E-02 -3.85976E-02 -4.68880E-02 -2.91262E-02 -6.72036E-02 -3.65722E-02 -5.92570E-02 -3.85164E-02 -5.15128E-02
  -6.42723E-02 -6.92394E-02 -3.66639E-02 -2.38423E-02 -7.64602E-02 -4.62806E-02 -3.68407E-02
 NY points of the fit to the data follow
   6.00853E-01  5.95575E-01  5.89502E-01  5.82953E-01  5.76694E-01  5.71362E-01  5.67502E-01  5.65480E-01  5.65817E-01  5.69082E-01
   5.76085E-01  5.87387E-01  6.03426E-01  6.24977E-01  6.53101E-01  6.88057E-01  7.29468E-01  7.76151E-01  8.25939E-01  8.77555E-01
   9.28767E-01  9.79290E-01  1.02694E+00  1.07193E+00  1.11219E+00  1.14793E+00  1.17716E+00  1.20046E+00  1.21670E+00  1.22665E+00
   1.22902E+00  1.22367E+00  1.20851E+00  1.18435E+00  1.15137E+00  1.11224E+00  1.06892E+00  1.02380E+00  9.78253E-01  9.33099E-01
   8.89063E-01  8.46107E-01  8.04485E-01  7.64504E-01  7.27175E-01  6.94320E-01  6.67753E-01  6.47037E-01  6.30892E-01  6.18072E-01
   6.07812E-01  5.99993E-01  5.95234E-01  5.93589E-01  5.94717E-01  5.98232E-01  6.03774E-01  6.11001E-01  6.19766E-01  6.29845E-01
   6.41342E-01  6.54118E-01  6.68172E-01  6.83262E-01  6.99079E-01  7.14815E-01  7.29642E-01  7.42417E-01  7.52757E-01  7.60432E-01
   7.65889E-01  7.69416E-01  7.71319E-01  7.71739E-01  7.70981E-01  7.69043E-01  7.65863E-01  7.61248E-01  7.54849E-01  7.46508E-01
   7.36239E-01  7.24290E-01  7.10864E-01  6.96253E-01  6.81099E-01  6.66541E-01  6.53741E-01  6.44306E-01  6.38937E-01  6.38063E-01
   6.41445E-01  6.48359E-01  6.57493E-01  6.67271E-01  6.75877E-01  6.82485E-01  6.86241E-01  6.86941E-01  6.84512E-01  6.79624E-01
   6.72835E-01  6.64867E-01  6.55873E-01  6.45883E-01  6.34626E-01  6.22351E-01  6.09546E-01  5.97152E-01  5.85979E-01  5.77121E-01
   5.71578E-01  5.70360E-01  5.73916E-01  5.82314E-01  5.94975E-01  6.10966E-01  6.28976E-01  6.47601E-01  6.65671E-01  6.82305E-01
   6.97217E-01  7.10220E-01  7.21138E-01  7.29418E-01  7.34218E-01  7.34542E-01  7.29711E-01  7.19576E-01  7.04510E-01  6.85442E-01
   6.63699E-01  6.40580E-01  6.17225E-01  5.94265E-01  5.71996E-01  5.50524E-01  5.29770E-01  5.09980E-01  4.91570E-01  4.75310E-01
   4.61523E-01  4.50088E-01  4.40668E-01  4.32711E-01  4.25587E-01  4.18843E-01  4.12231E-01  4.05873E-01  3.99839E-01  3.94087E-01
   3.88512E-01  3.83023E-01  3.77488E-01  3.71785E-01  3.65786E-01  3.59521E-01  3.53059E-01  3.46698E-01  3.40734E-01  3.35613E-01
   3.31632E-01  3.29004E-01  3.27733E-01  3.27755E-01  3.28838E-01  3.31019E-01  3.34425E-01  3.39372E-01  3.45761E-01  3.53416E-01
   3.61681E-01  3.69998E-01  3.77613E-01  3.83995E-01  3.88744E-01  3.91619E-01  3.92716E-01  3.92204E-01  3.90554E-01  3.88201E-01
