 LCModel (Version 6.3-0D) Copyright: S.W. Provencher.          Ref.: Magn. Reson. Med. 30:672-679 (1993).                
 S03_PRESS_35_act
 Data of: Dept of Radiology, The Johns Hopkins University School of Medicine
 24-February-2020  09:50
 32 lines in following concentration table = NCONC+1
    Conc.  %SD /Cr+PCr  Metabolite                                         
    0.903  49%   0.607 Asc                                                 
    5.316  13%   3.574 Asp                                                 
    7.253   7%   4.875 Cr                                                  
    3.492  18%   2.347 GABA                                                
    1.590  15%   1.069 GPC                                                 
    2.054   7%   1.381 GSH                                                 
    2.970  22%   1.997 Gln                                                 
   14.776   4%   9.932 Glu                                                 
    8.953   5%   6.018 Ins                                                 
    0.000 999%   0.000 Lac                                                 
   15.834   3%  10.643 NAA                                                 
    0.226 203%   0.152 NAAG                                                
    0.535  45%   0.360 PCh                                                 
    4.648  12%   3.125 PCr                                                 
    5.545  14%   3.727 PE                                                  
    0.400  16%   0.269 Scyllo                                              
    0.498 108%   0.335 Tau                                                 
    0.332  88%   0.223 -CrCH2                                              
    2.125   3%   1.429 PCh+GPC                                             
   11.901   1%   8.000 Cr+PCr                                              
   16.059   2%  10.795 NAA+NAAG                                            
   17.746   5%  11.929 Glu+Gln                                             
   10.026  28%   6.739 Lip13a                                              
    0.000 999%   0.000 Lip13b                                              
    0.817 160%   0.549 Lip09                                               
    6.076  19%   4.084 MM09                                                
    3.602  16%   2.421 Lip20                                               
    7.147  24%   4.804 MM20                                                
    3.646  13%   2.451 MM12                                                
    6.289  33%   4.228 MM14                                                
    4.910  25%   3.300 MM17                                                
   6 lines in following misc. output table
  FWHM = 0.069 ppm    S/N =  48                                            
  Data shift =-0.015 ppm                                                   
  Ph: -12 deg      -3.7 deg/ppm                                            
  alphaB,S = 6.1E-02,   5.1E+01                                            
   24 spline knots.   Ns = 8(2)                                            
  ( 7) 4 infls.   ( 1) 1 extrs.                                            
  917 points on ppm-axis = NY
      4.000000     3.996178     3.992356     3.988534     3.984712     3.980890     3.977067     3.973245     3.969423     3.965601
      3.961779     3.957957     3.954135     3.950313     3.946491     3.942669     3.938847     3.935024     3.931202     3.927380
      3.923558     3.919736     3.915914     3.912092     3.908270     3.904448     3.900626     3.896804     3.892982     3.889159
      3.885337     3.881515     3.877693     3.873871     3.870049     3.866227     3.862405     3.858583     3.854761     3.850939
      3.847116     3.843294     3.839472     3.835650     3.831828     3.828006     3.824184     3.820362     3.816540     3.812718
      3.808896     3.805073     3.801251     3.797429     3.793607     3.789785     3.785963     3.782141     3.778319     3.774497
      3.770675     3.766853     3.763031     3.759208     3.755386     3.751564     3.747742     3.743920     3.740098     3.736276
      3.732454     3.728632     3.724810     3.720988     3.717165     3.713343     3.709521     3.705699     3.701877     3.698055
      3.694233     3.690411     3.686589     3.682767     3.678945     3.675122     3.671300     3.667478     3.663656     3.659834
      3.656012     3.652190     3.648368     3.644546     3.640724     3.636902     3.633080     3.629257     3.625435     3.621613
      3.617791     3.613969     3.610147     3.606325     3.602503     3.598681     3.594859     3.591037     3.587214     3.583392
      3.579570     3.575748     3.571926     3.568104     3.564282     3.560460     3.556638     3.552816     3.548994     3.545171
      3.541349     3.537527     3.533705     3.529883     3.526061     3.522239     3.518417     3.514595     3.510773     3.506951
      3.503129     3.499306     3.495484     3.491662     3.487840     3.484018     3.480196     3.476374     3.472552     3.468730
      3.464908     3.461086     3.457263     3.453441     3.449619     3.445797     3.441975     3.438153     3.434331     3.430509
      3.426687     3.422865     3.419043     3.415220     3.411398     3.407576     3.403754     3.399932     3.396110     3.392288
      3.388466     3.384644     3.380822     3.377000     3.373178     3.369355     3.365533     3.361711     3.357889     3.354067
      3.350245     3.346423     3.342601     3.338779     3.334957     3.331135     3.327312     3.323490     3.319668     3.315846
      3.312024     3.308202     3.304380     3.300558     3.296736     3.292914     3.289092     3.285269     3.281447     3.277625
      3.273803     3.269981     3.266159     3.262337     3.258515     3.254693     3.250871     3.247049     3.243227     3.239404
      3.235582     3.231760     3.227938     3.224116     3.220294     3.216472     3.212650     3.208828     3.205006     3.201184
      3.197361     3.193539     3.189717     3.185895     3.182073     3.178251     3.174429     3.170607     3.166785     3.162963
      3.159141     3.155318     3.151496     3.147674     3.143852     3.140030     3.136208     3.132386     3.128564     3.124742
      3.120920     3.117098     3.113276     3.109453     3.105631     3.101809     3.097987     3.094165     3.090343     3.086521
      3.082699     3.078877     3.075055     3.071233     3.067410     3.063588     3.059766     3.055944     3.052122     3.048300
      3.044478     3.040656     3.036834     3.033012     3.029190     3.025367     3.021545     3.017723     3.013901     3.010079
      3.006257     3.002435     2.998613     2.994791     2.990969     2.987147     2.983325     2.979502     2.975680     2.971858
      2.968036     2.964214     2.960392     2.956570     2.952748     2.948926     2.945104     2.941282     2.937459     2.933637
      2.929815     2.925993     2.922171     2.918349     2.914527     2.910705     2.906883     2.903061     2.899239     2.895416
      2.891594     2.887772     2.883950     2.880128     2.876306     2.872484     2.868662     2.864840     2.861018     2.857196
      2.853374     2.849551     2.845729     2.841907     2.838085     2.834263     2.830441     2.826619     2.822797     2.818975
      2.815153     2.811331     2.807508     2.803686     2.799864     2.796042     2.792220     2.788398     2.784576     2.780754
      2.776932     2.773110     2.769288     2.765465     2.761643     2.757821     2.753999     2.750177     2.746355     2.742533
      2.738711     2.734889     2.731067     2.727245     2.723423     2.719600     2.715778     2.711956     2.708134     2.704312
      2.700490     2.696668     2.692846     2.689024     2.685202     2.681380     2.677557     2.673735     2.669913     2.666091
      2.662269     2.658447     2.654625     2.650803     2.646981     2.643159     2.639337     2.635514     2.631692     2.627870
      2.624048     2.620226     2.616404     2.612582     2.608760     2.604938     2.601116     2.597294     2.593472     2.589649
      2.585827     2.582005     2.578183     2.574361     2.570539     2.566717     2.562895     2.559073     2.555251     2.551429
      2.547606     2.543784     2.539962     2.536140     2.532318     2.528496     2.524674     2.520852     2.517030     2.513208
      2.509386     2.505563     2.501741     2.497919     2.494097     2.490275     2.486453     2.482631     2.478809     2.474987
      2.471165     2.467343     2.463521     2.459698     2.455876     2.452054     2.448232     2.444410     2.440588     2.436766
      2.432944     2.429122     2.425300     2.421478     2.417655     2.413833     2.410011     2.406189     2.402367     2.398545
      2.394723     2.390901     2.387079     2.383257     2.379435     2.375612     2.371790     2.367968     2.364146     2.360324
      2.356502     2.352680     2.348858     2.345036     2.341214     2.337392     2.333570     2.329747     2.325925     2.322103
      2.318281     2.314459     2.310637     2.306815     2.302993     2.299171     2.295349     2.291527     2.287704     2.283882
      2.280060     2.276238     2.272416     2.268594     2.264772     2.260950     2.257128     2.253306     2.249484     2.245661
      2.241839     2.238017     2.234195     2.230373     2.226551     2.222729     2.218907     2.215085     2.211263     2.207441
      2.203619     2.199796     2.195974     2.192152     2.188330     2.184508     2.180686     2.176864     2.173042     2.169220
      2.165398     2.161576     2.157753     2.153931     2.150109     2.146287     2.142465     2.138643     2.134821     2.130999
      2.127177     2.123355     2.119533     2.115710     2.111888     2.108066     2.104244     2.100422     2.096600     2.092778
      2.088956     2.085134     2.081312     2.077490     2.073668     2.069845     2.066023     2.062201     2.058379     2.054557
      2.050735     2.046913     2.043091     2.039269     2.035447     2.031625     2.027802     2.023980     2.020158     2.016336
      2.012514     2.008692     2.004870     2.001048     1.997226     1.993404     1.989582     1.985759     1.981937     1.978115
      1.974293     1.970471     1.966649     1.962827     1.959005     1.955183     1.951361     1.947539     1.943717     1.939894
      1.936072     1.932250     1.928428     1.924606     1.920784     1.916962     1.913140     1.909318     1.905496     1.901674
      1.897851     1.894029     1.890207     1.886385     1.882563     1.878741     1.874919     1.871097     1.867275     1.863453
      1.859631     1.855808     1.851986     1.848164     1.844342     1.840520     1.836698     1.832876     1.829054     1.825232
      1.821410     1.817588     1.813766     1.809943     1.806121     1.802299     1.798477     1.794655     1.790833     1.787011
      1.783189     1.779367     1.775545     1.771723     1.767900     1.764078     1.760256     1.756434     1.752612     1.748790
      1.744968     1.741146     1.737324     1.733502     1.729680     1.725857     1.722035     1.718213     1.714391     1.710569
      1.706747     1.702925     1.699103     1.695281     1.691459     1.687637     1.683815     1.679992     1.676170     1.672348
      1.668526     1.664704     1.660882     1.657060     1.653238     1.649416     1.645594     1.641772     1.637949     1.634127
      1.630305     1.626483     1.622661     1.618839     1.615017     1.611195     1.607373     1.603551     1.599729     1.595906
      1.592084     1.588262     1.584440     1.580618     1.576796     1.572974     1.569152     1.565330     1.561508     1.557686
      1.553864     1.550041     1.546219     1.542397     1.538575     1.534753     1.530931     1.527109     1.523287     1.519465
      1.515643     1.511821     1.507998     1.504176     1.500354     1.496532     1.492710     1.488888     1.485066     1.481244
      1.477422     1.473600     1.469778     1.465955     1.462133     1.458311     1.454489     1.450667     1.446845     1.443023
      1.439201     1.435379     1.431557     1.427735     1.423913     1.420090     1.416268     1.412446     1.408624     1.404802
      1.400980     1.397158     1.393336     1.389514     1.385692     1.381870     1.378047     1.374225     1.370403     1.366581
      1.362759     1.358937     1.355115     1.351293     1.347471     1.343649     1.339827     1.336004     1.332182     1.328360
      1.324538     1.320716     1.316894     1.313072     1.309250     1.305428     1.301606     1.297784     1.293962     1.290139
      1.286317     1.282495     1.278673     1.274851     1.271029     1.267207     1.263385     1.259563     1.255741     1.251919
      1.248096     1.244274     1.240452     1.236630     1.232808     1.228986     1.225164     1.221342     1.217520     1.213698
      1.209876     1.206053     1.202231     1.198409     1.194587     1.190765     1.186943     1.183121     1.179299     1.175477
      1.171655     1.167833     1.164011     1.160188     1.156366     1.152544     1.148722     1.144900     1.141078     1.137256
      1.133434     1.129612     1.125790     1.121968     1.118145     1.114323     1.110501     1.106679     1.102857     1.099035
      1.095213     1.091391     1.087569     1.083747     1.079925     1.076102     1.072280     1.068458     1.064636     1.060814
      1.056992     1.053170     1.049348     1.045526     1.041704     1.037882     1.034060     1.030237     1.026415     1.022593
      1.018771     1.014949     1.011127     1.007305     1.003483     0.999661     0.995839     0.992016     0.988194     0.984372
      0.980550     0.976728     0.972906     0.969083     0.965261     0.961439     0.957617     0.953795     0.949973     0.946151
      0.942328     0.938506     0.934684     0.930862     0.927040     0.923218     0.919396     0.915573     0.911751     0.907929
      0.904107     0.900285     0.896463     0.892641     0.888818     0.884996     0.881174     0.877352     0.873530     0.869708
      0.865885     0.862063     0.858241     0.854419     0.850597     0.846775     0.842953     0.839130     0.835308     0.831486
      0.827664     0.823842     0.820020     0.816198     0.812375     0.808553     0.804731     0.800909     0.797087     0.793265
      0.789443     0.785620     0.781798     0.777976     0.774154     0.770332     0.766510     0.762688     0.758865     0.755043
      0.751221     0.747399     0.743577     0.739755     0.735932     0.732110     0.728288     0.724466     0.720644     0.716822
      0.713000     0.709177     0.705355     0.701533     0.697711     0.693889     0.690067     0.686245     0.682422     0.678600
      0.674778     0.670956     0.667134     0.663312     0.659490     0.655667     0.651845     0.648023     0.644201     0.640379
      0.636557     0.632734     0.628912     0.625090     0.621268     0.617446     0.613624     0.609802     0.605979     0.602157
      0.598335     0.594513     0.590691     0.586869     0.583047     0.579224     0.575402     0.571580     0.567758     0.563936
      0.560114     0.556292     0.552469     0.548647     0.544825     0.541003     0.537181     0.533359     0.529536     0.525714
      0.521892     0.518070     0.514248     0.510426     0.506604     0.502781     0.498959
 NY phased data points follow
   3.61907E-01  3.64370E-01  3.65308E-01  3.50777E-01  3.70458E-01  3.85663E-01  3.99524E-01  3.84314E-01  3.84079E-01  3.91535E-01
   3.72830E-01  3.96296E-01  4.12460E-01  4.38493E-01  4.76358E-01  5.06132E-01  5.47149E-01  5.79954E-01  6.40952E-01  6.48920E-01
   6.62560E-01  7.09617E-01  7.76683E-01  8.28674E-01  8.74746E-01  9.50672E-01  9.63056E-01  1.00472E+00  1.03446E+00  1.05485E+00
   1.08158E+00  1.04904E+00  1.03595E+00  1.01945E+00  1.01811E+00  9.67504E-01  9.60812E-01  9.24449E-01  8.87386E-01  8.29200E-01
   7.78341E-01  7.56944E-01  7.09038E-01  6.59908E-01  6.39095E-01  5.85676E-01  5.70143E-01  5.78759E-01  5.44775E-01  5.19124E-01
   4.98212E-01  5.18120E-01  5.00321E-01  4.81778E-01  4.79454E-01  5.14949E-01  4.93243E-01  5.08116E-01  4.82618E-01  5.40978E-01
   5.24481E-01  5.87563E-01  6.02282E-01  5.70935E-01  6.43831E-01  6.09281E-01  6.18825E-01  6.47155E-01  6.58390E-01  6.42682E-01
   6.57884E-01  6.70459E-01  6.37313E-01  6.59139E-01  6.61198E-01  6.79937E-01  6.62934E-01  6.58530E-01  6.70050E-01  6.53426E-01
   6.54823E-01  6.24528E-01  6.12949E-01  5.94248E-01  5.97841E-01  5.08885E-01  5.58237E-01  5.21837E-01  5.37536E-01  5.20864E-01
   5.29575E-01  5.47208E-01  5.48135E-01  5.53727E-01  5.62568E-01  5.64561E-01  5.74966E-01  5.53309E-01  5.48128E-01  5.69221E-01
   5.77675E-01  5.49432E-01  5.59668E-01  5.27634E-01  5.38765E-01  5.11216E-01  4.94837E-01  5.11050E-01  4.93076E-01  4.62912E-01
   4.89610E-01  4.78460E-01  4.82891E-01  4.68531E-01  4.91054E-01  4.85318E-01  4.64804E-01  5.24877E-01  5.44067E-01  5.60395E-01
   5.91975E-01  6.10565E-01  6.33181E-01  6.56981E-01  6.34722E-01  6.01271E-01  6.38057E-01  6.21479E-01  6.05582E-01  5.88660E-01
   5.95326E-01  5.51259E-01  5.57949E-01  5.02999E-01  4.89372E-01  4.41280E-01  4.21815E-01  4.04520E-01  3.90540E-01  3.81903E-01
   3.44334E-01  3.33900E-01  3.07957E-01  2.96423E-01  3.06948E-01  2.81901E-01  3.05601E-01  2.80250E-01  2.73429E-01  2.98821E-01
   2.66877E-01  2.62899E-01  2.51025E-01  2.61012E-01  2.67050E-01  2.82404E-01  2.81828E-01  2.40534E-01  2.61725E-01  2.10889E-01
   2.46701E-01  2.43133E-01  2.33408E-01  2.41446E-01  2.13343E-01  2.31757E-01  2.25727E-01  2.26195E-01  2.16469E-01  2.16349E-01
   2.08695E-01  2.53003E-01  2.61209E-01  2.49709E-01  2.27493E-01  2.20621E-01  2.44575E-01  2.42369E-01  2.54227E-01  2.44768E-01
   2.69084E-01  2.44877E-01  2.56760E-01  2.36021E-01  2.57572E-01  2.36383E-01  2.23175E-01  2.45923E-01  2.66562E-01  2.37338E-01
   2.69380E-01  2.72058E-01  2.69280E-01  2.80657E-01  3.05881E-01  3.21020E-01  3.44068E-01  3.56127E-01  3.78986E-01  3.85236E-01
   4.29536E-01  4.37086E-01  4.64856E-01  4.82925E-01  5.37454E-01  5.56375E-01  6.31878E-01  6.68824E-01  6.91875E-01  7.43308E-01
   7.79389E-01  8.21578E-01  8.35251E-01  8.25867E-01  8.39344E-01  8.39381E-01  8.40693E-01  8.40421E-01  8.41472E-01  8.21509E-01
   7.67373E-01  7.63508E-01  7.32304E-01  6.74755E-01  6.52220E-01  5.91560E-01  5.36799E-01  4.98474E-01  4.70529E-01  4.07419E-01
   4.03284E-01  3.31429E-01  3.26623E-01  3.42952E-01  2.76742E-01  3.00581E-01  2.50157E-01  2.81567E-01  2.50589E-01  2.78567E-01
   2.47884E-01  2.64272E-01  2.76682E-01  2.84644E-01  2.82953E-01  2.90223E-01  3.02388E-01  3.12364E-01  3.43320E-01  3.77378E-01
   4.26583E-01  5.17472E-01  5.54359E-01  6.54068E-01  7.68004E-01  8.53409E-01  9.28512E-01  1.01320E+00  1.09936E+00  1.12942E+00
   1.18145E+00  1.18186E+00  1.20662E+00  1.23236E+00  1.24589E+00  1.21421E+00  1.22043E+00  1.15481E+00  1.08746E+00  1.06668E+00
   9.81297E-01  9.46600E-01  8.59099E-01  7.86261E-01  7.08118E-01  6.35548E-01  5.74742E-01  5.15287E-01  4.58203E-01  4.23656E-01
   3.73540E-01  3.58582E-01  3.21701E-01  2.83417E-01  3.16662E-01  2.59504E-01  2.49254E-01  2.18898E-01  2.13572E-01  2.07794E-01
   2.37208E-01  1.88533E-01  2.02421E-01  2.07198E-01  2.11898E-01  1.88004E-01  1.50873E-01  1.49527E-01  1.71643E-01  1.73022E-01
   1.42837E-01  1.98746E-01  1.59537E-01  1.37762E-01  1.56190E-01  1.29748E-01  1.96220E-01  1.40843E-01  1.23475E-01  1.25722E-01
   1.37775E-01  1.35494E-01  1.45723E-01  1.63040E-01  1.44470E-01  1.28564E-01  1.24123E-01  1.61405E-01  1.69823E-01  1.82899E-01
   1.74037E-01  2.10439E-01  2.01479E-01  1.89932E-01  2.26532E-01  2.28076E-01  2.01311E-01  2.17105E-01  2.18174E-01  2.37862E-01
   2.39568E-01  2.80327E-01  2.20794E-01  2.45081E-01  2.60562E-01  2.22184E-01  2.26766E-01  2.38949E-01  2.15877E-01  2.27096E-01
   1.90463E-01  1.87801E-01  1.96368E-01  1.40351E-01  1.62984E-01  1.66364E-01  1.60763E-01  1.49792E-01  1.26140E-01  1.45198E-01
   1.65431E-01  1.17464E-01  1.34264E-01  1.35524E-01  1.73608E-01  1.73058E-01  1.90260E-01  2.03878E-01  1.86512E-01  2.00721E-01
   2.23056E-01  2.52426E-01  2.50342E-01  2.84509E-01  3.01331E-01  2.96965E-01  3.12445E-01  3.07933E-01  3.29272E-01  3.35756E-01
   3.62748E-01  3.52626E-01  3.60958E-01  3.63332E-01  3.76824E-01  3.83766E-01  3.64158E-01  3.61024E-01  3.86560E-01  3.20606E-01
   3.50717E-01  3.08033E-01  3.24743E-01  3.17329E-01  3.01325E-01  3.27445E-01  2.91110E-01  2.89690E-01  2.79450E-01  2.47146E-01
   2.71560E-01  2.78163E-01  2.51126E-01  2.76866E-01  3.00189E-01  2.67400E-01  2.97213E-01  3.20885E-01  3.37935E-01  3.29546E-01
   3.17514E-01  3.47826E-01  3.34329E-01  3.66873E-01  3.89996E-01  3.80443E-01  4.29464E-01  4.52772E-01  4.60827E-01  4.75727E-01
   4.81796E-01  4.93452E-01  5.02964E-01  4.95009E-01  5.00744E-01  5.04982E-01  5.12155E-01  5.11946E-01  4.86881E-01  4.66518E-01
   4.72405E-01  4.52968E-01  4.67983E-01  4.62760E-01  4.63078E-01  4.40130E-01  4.68996E-01  4.91349E-01  4.92592E-01  5.31835E-01
   5.47512E-01  5.58243E-01  5.87648E-01  6.12898E-01  6.04869E-01  6.24353E-01  6.25115E-01  6.45483E-01  6.50097E-01  6.68900E-01
   6.50325E-01  6.35010E-01  6.43135E-01  6.55602E-01  6.06638E-01  6.37102E-01  5.97464E-01  5.93262E-01  6.00460E-01  5.83769E-01
   5.98015E-01  5.73584E-01  5.79914E-01  5.60879E-01  5.68576E-01  5.60140E-01  5.66057E-01  5.75951E-01  5.86853E-01  5.99923E-01
   5.73144E-01  5.34399E-01  5.49197E-01  5.24038E-01  5.32966E-01  5.14329E-01  5.04740E-01  4.82423E-01  4.95418E-01  5.01717E-01
   4.83422E-01  4.75130E-01  4.61926E-01  4.47349E-01  4.78250E-01  4.67096E-01  4.37020E-01  4.52860E-01  4.78902E-01  4.47635E-01
   4.48418E-01  4.81750E-01  4.53053E-01  4.57321E-01  4.22998E-01  4.58461E-01  4.47718E-01  4.79003E-01  4.64709E-01  4.82892E-01
   4.82711E-01  4.61503E-01  4.90032E-01  4.71461E-01  5.05243E-01  5.17776E-01  5.23048E-01  5.26113E-01  5.75084E-01  5.86956E-01
   5.93100E-01  6.01616E-01  5.90797E-01  6.23444E-01  6.50258E-01  6.21304E-01  6.63797E-01  7.02027E-01  7.16552E-01  7.27564E-01
   7.27641E-01  7.44576E-01  7.78701E-01  7.71920E-01  8.18382E-01  9.18249E-01  9.90902E-01  1.08878E+00  1.16425E+00  1.28427E+00
   1.43639E+00  1.58824E+00  1.69030E+00  1.77625E+00  1.87915E+00  1.90149E+00  1.91893E+00  1.95122E+00  1.92758E+00  1.89333E+00
   1.82969E+00  1.83367E+00  1.76423E+00  1.71741E+00  1.59623E+00  1.51317E+00  1.41110E+00  1.25909E+00  1.12740E+00  9.97797E-01
   8.70646E-01  7.60714E-01  6.26120E-01  5.90459E-01  5.13906E-01  4.53176E-01  4.17965E-01  3.75122E-01  3.61087E-01  3.24158E-01
   2.66414E-01  2.63192E-01  2.49354E-01  2.48330E-01  2.09874E-01  2.08277E-01  1.96732E-01  1.56746E-01  1.81140E-01  1.58594E-01
   1.54410E-01  1.81322E-01  1.44704E-01  1.40302E-01  1.18678E-01  1.44211E-01  1.11434E-01  8.98757E-02  1.14614E-01  8.60446E-02
   1.41797E-01  1.01992E-01  1.18124E-01  1.14950E-01  1.15693E-01  8.46491E-02  1.01454E-01  1.05349E-01  9.63209E-02  9.59653E-02
   9.57618E-02  7.57016E-02  8.43192E-02  1.04264E-01  8.82133E-02  1.11118E-01  1.05807E-01  8.05921E-02  1.03803E-01  4.27111E-02
   7.59905E-02  6.08332E-02  6.32890E-02  7.35109E-02  5.30918E-02  7.86708E-02  5.63287E-02  5.94624E-02  9.23272E-02  6.14787E-02
   3.52115E-02  5.86648E-02  5.67165E-02  3.83861E-02  3.73992E-02  4.79287E-02  4.88915E-02  5.82672E-02  4.91772E-02  4.09446E-02
   3.97424E-02  7.25318E-02  5.66604E-02  7.08168E-02  6.91354E-02  7.45711E-02  8.02007E-02  8.40640E-02  8.07240E-02  9.16140E-02
   7.75651E-02  1.03221E-01  6.86509E-02  7.52781E-02  8.62441E-02  5.08663E-02  7.35062E-02  7.14581E-02  7.86712E-02  8.17536E-02
   7.70923E-02  9.50405E-02  8.43141E-02  6.59663E-02  8.29710E-02  6.74485E-02  5.58072E-02  6.33511E-02  6.39895E-02  7.46502E-02
   8.31204E-02  5.37622E-02  4.24260E-02  4.79136E-02  4.17867E-02  4.30479E-02  2.10255E-02  2.89033E-02  2.87897E-02  3.07203E-02
   3.16573E-02  4.26387E-04  4.35740E-03  5.69254E-03  9.61500E-04  1.62443E-02  1.21189E-02  3.61852E-03  2.65235E-03  2.31192E-02
   6.55497E-03 -6.31693E-03 -7.99278E-03 -1.77743E-03  2.43661E-02  9.03441E-03 -1.10422E-02 -2.76737E-02  3.78242E-04 -8.46722E-03
   2.52349E-02  6.37922E-03  1.89069E-02  7.29977E-03  2.75851E-03  4.53882E-03  7.23697E-03  4.26595E-03  2.14831E-03  3.96549E-02
   2.89595E-02 -1.09098E-02  1.09619E-02  6.14433E-03  2.25581E-02  4.64777E-02  1.21873E-02  1.54564E-02  4.26181E-02  3.39440E-02
   2.42460E-02  3.25139E-02  5.46759E-02  4.26399E-02  5.02314E-02  4.80780E-02  4.77525E-02  1.99806E-02  5.51434E-02  1.99562E-02
   3.72986E-02  2.60124E-02  1.61426E-02  2.48797E-02  1.57019E-02 -1.30626E-02 -1.79860E-02 -3.69750E-02 -2.58940E-02 -1.65679E-02
  -3.63742E-02 -4.57738E-02 -6.20466E-02 -6.07787E-02 -3.41701E-02 -6.34328E-02 -9.69259E-02 -7.27249E-02 -7.73056E-02 -1.12472E-01
  -1.22741E-01 -1.20785E-01 -1.36105E-01 -1.22416E-01 -1.22620E-01 -1.11551E-01 -1.26888E-01 -1.36210E-01 -1.38529E-01 -1.41139E-01
  -1.78274E-01 -1.57634E-01 -1.73520E-01 -1.86056E-01 -1.98874E-01 -2.20124E-01 -1.77766E-01 -1.70786E-01 -2.32985E-01 -2.10634E-01
  -2.00210E-01 -2.10720E-01 -2.05917E-01 -2.16877E-01 -2.16100E-01 -2.31832E-01 -2.46388E-01 -2.83076E-01 -2.51880E-01 -2.69454E-01
  -2.53840E-01 -2.82980E-01 -2.71202E-01 -2.89460E-01 -3.05313E-01 -3.02666E-01 -3.32106E-01 -3.50562E-01 -3.07417E-01 -3.45194E-01
  -3.48744E-01 -3.81471E-01 -3.45683E-01 -3.40293E-01 -3.69949E-01 -3.73798E-01 -3.79955E-01 -3.84911E-01 -3.69184E-01 -3.82706E-01
  -3.86684E-01 -3.97209E-01 -4.12447E-01 -4.19016E-01 -3.99014E-01 -4.05628E-01 -3.87272E-01 -3.73101E-01 -3.89334E-01 -3.83039E-01
  -4.05046E-01 -3.74612E-01 -4.00841E-01 -3.71720E-01 -3.77978E-01 -3.58525E-01 -3.67498E-01 -3.41563E-01 -3.67956E-01 -3.83821E-01
  -3.63592E-01 -3.76456E-01 -3.43448E-01 -3.51820E-01 -3.63534E-01 -3.46323E-01 -3.21202E-01 -3.44323E-01 -3.23354E-01 -3.51177E-01
  -3.15321E-01 -3.09736E-01 -2.93331E-01 -2.92180E-01 -2.78476E-01 -3.07433E-01 -2.72100E-01 -2.56631E-01 -2.53320E-01 -2.17120E-01
  -2.44909E-01 -2.33748E-01 -2.74056E-01 -2.54617E-01 -2.36628E-01 -2.12600E-01 -2.74677E-01 -2.30773E-01 -2.42435E-01 -2.43813E-01
  -2.23121E-01 -2.57772E-01 -2.83284E-01 -2.61037E-01 -2.59052E-01 -2.68238E-01 -2.78836E-01 -2.66219E-01 -2.99822E-01 -2.53820E-01
  -2.78870E-01 -3.05819E-01 -3.03955E-01 -3.09556E-01 -3.14708E-01 -3.21621E-01 -3.09255E-01 -3.56487E-01 -3.52502E-01 -3.54157E-01
  -3.59832E-01 -3.79850E-01 -3.64696E-01 -3.95224E-01 -3.67071E-01 -3.73604E-01 -3.80453E-01 -4.23570E-01 -3.95075E-01 -4.07945E-01
  -4.19397E-01 -4.18642E-01 -4.25538E-01 -4.25087E-01 -4.21724E-01 -4.34420E-01 -4.14479E-01 -4.34882E-01 -4.39860E-01 -4.48403E-01
  -4.18183E-01 -4.35223E-01 -4.45523E-01 -4.32527E-01 -4.36032E-01 -4.37461E-01 -4.44751E-01 -4.71447E-01 -4.33219E-01 -4.34068E-01
  -4.59282E-01 -4.30141E-01 -4.46639E-01 -4.24834E-01 -4.43462E-01 -4.52856E-01 -4.62442E-01 -4.52506E-01 -4.61940E-01 -4.52947E-01
  -4.35654E-01 -4.34697E-01 -4.51302E-01 -4.18457E-01 -4.34106E-01 -4.35294E-01 -4.73244E-01 -4.59178E-01 -4.65981E-01 -4.52713E-01
  -4.51549E-01 -4.47036E-01 -4.32479E-01 -4.60250E-01 -4.53737E-01 -4.58166E-01 -4.51637E-01 -4.73560E-01 -4.56461E-01 -4.61685E-01
  -4.69886E-01 -4.34986E-01 -4.31738E-01 -4.57532E-01 -4.61008E-01 -4.55353E-01 -4.53909E-01 -4.58468E-01 -4.61663E-01 -4.62866E-01
  -4.38035E-01 -4.40114E-01 -4.33067E-01 -4.12672E-01 -4.32617E-01 -4.37909E-01 -4.32377E-01
 NY points of the fit to the data follow
   3.89255E-01  3.87143E-01  3.84079E-01  3.80140E-01  3.75536E-01  3.71474E-01  3.68989E-01  3.68872E-01  3.71354E-01  3.76362E-01
   3.84085E-01  3.96107E-01  4.13921E-01  4.37845E-01  4.67120E-01  5.00854E-01  5.37698E-01  5.76710E-01  6.15992E-01  6.55520E-01
   6.95583E-01  7.37761E-01  7.82332E-01  8.29461E-01  8.77673E-01  9.25304E-01  9.69381E-01  1.00682E+00  1.03538E+00  1.05376E+00
   1.06205E+00  1.06069E+00  1.05096E+00  1.03373E+00  1.01099E+00  9.83588E-01  9.53067E-01  9.19535E-01  8.84076E-01  8.46164E-01
   8.06625E-01  7.64680E-01  7.20477E-01  6.75314E-01  6.32514E-01  5.93981E-01  5.61486E-01  5.35762E-01  5.16655E-01  5.02647E-01
   4.91421E-01  4.81658E-01  4.74919E-01  4.72964E-01  4.76024E-01  4.83400E-01  4.93806E-01  5.06508E-01  5.20489E-01  5.35154E-01
   5.49750E-01  5.64480E-01  5.78884E-01  5.93360E-01  6.07800E-01  6.22311E-01  6.35938E-01  6.48343E-01  6.58534E-01  6.66429E-01
   6.71460E-01  6.74065E-01  6.73962E-01  6.71795E-01  6.67886E-01  6.63008E-01  6.57279E-01  6.50998E-01  6.44056E-01  6.36300E-01
   6.27543E-01  6.17859E-01  6.07303E-01  5.95380E-01  5.81955E-01  5.68062E-01  5.55324E-01  5.44638E-01  5.36551E-01  5.31536E-01
   5.30079E-01  5.32056E-01  5.37277E-01  5.44744E-01  5.52854E-01  5.60107E-01  5.65775E-01  5.69012E-01  5.69333E-01  5.66497E-01
   5.60830E-01  5.52991E-01  5.44125E-01  5.34966E-01  5.25672E-01  5.15758E-01  5.05279E-01  4.94500E-01  4.84351E-01  4.75819E-01
   4.70034E-01  4.67773E-01  4.69729E-01  4.75822E-01  4.85720E-01  4.98868E-01  5.14912E-01  5.32923E-01  5.51601E-01  5.69584E-01
   5.85532E-01  5.98936E-01  6.09506E-01  6.17267E-01  6.21973E-01  6.23182E-01  6.20293E-01  6.13024E-01  6.01519E-01  5.86214E-01
   5.67703E-01  5.46791E-01  5.24269E-01  5.01127E-01  4.78370E-01  4.56800E-01  4.36963E-01  4.18663E-01  4.01346E-01  3.84856E-01
   3.69959E-01  3.56975E-01  3.45934E-01  3.36775E-01  3.29142E-01  3.22371E-01  3.15752E-01  3.08782E-01  3.01725E-01  2.94817E-01
   2.88043E-01  2.81276E-01  2.74421E-01  2.67422E-01  2.60366E-01  2.53368E-01  2.46591E-01  2.40106E-01  2.33962E-01  2.28195E-01
   2.23109E-01  2.18944E-01  2.15854E-01  2.13938E-01  2.13181E-01  2.13421E-01  2.14661E-01  2.16936E-01  2.20379E-01  2.24931E-01
   2.30418E-01  2.36237E-01  2.41941E-01  2.46662E-01  2.50196E-01  2.52059E-01  2.52521E-01  2.51626E-01  2.49900E-01  2.47527E-01
