 LCModel (Version 6.3-0D) Copyright: S.W. Provencher.          Ref.: Magn. Reson. Med. 30:672-679 (1993).                
 S08_PRESS_35_act
 Data of: Dept of Radiology, The Johns Hopkins University School of Medicine
 24-February-2020  09:52
 32 lines in following concentration table = NCONC+1
    Conc.  %SD /Cr+PCr  Metabolite                                         
    0.704  39%   0.452 Asc                                                 
    4.744  11%   3.042 Asp                                                 
    7.083   5%   4.542 Cr                                                  
    1.308  23%   0.839 GABA                                                
    1.399  11%   0.897 GPC                                                 
    1.801   6%   1.155 GSH                                                 
    2.568  16%   1.647 Gln                                                 
   13.976   4%   8.962 Glu                                                 
    8.523   3%   5.465 Ins                                                 
    0.857  28%   0.550 Lac                                                 
   15.230   2%   9.766 NAA                                                 
    0.207  97%   0.133 NAAG                                                
    0.672  22%   0.431 PCh                                                 
    5.392   6%   3.458 PCr                                                 
    6.443   8%   4.132 PE                                                  
    0.488   8%   0.313 Scyllo                                              
    0.000 999%   0.000 Tau                                                 
    0.000 999%   0.000 -CrCH2                                              
    2.071   2%   1.328 PCh+GPC                                             
   12.476   1%   8.000 Cr+PCr                                              
   15.437   1%   9.899 NAA+NAAG                                            
   16.544   4%  10.609 Glu+Gln                                             
   13.849  33%   8.881 Lip13a                                              
    0.000 999%   0.000 Lip13b                                              
    3.343  46%   2.144 Lip09                                               
    7.652  21%   4.907 MM09                                                
    3.647  16%   2.339 Lip20                                               
    5.633  32%   3.612 MM20                                                
    5.074  12%   3.253 MM12                                                
    8.345  31%   5.351 MM14                                                
    5.926  26%   3.800 MM17                                                
   6 lines in following misc. output table
  FWHM = 0.034 ppm    S/N =  60                                            
  Data shift =-0.004 ppm                                                   
  Ph: -22 deg      -7.9 deg/ppm                                            
  alphaB,S = 4.4E-02,   4.0E-01                                            
   26 spline knots.   Ns =10(1)                                            
   4 inflections.     1 extrema                                            
  917 points on ppm-axis = NY
      4.000000     3.996178     3.992356     3.988534     3.984712     3.980890     3.977067     3.973245     3.969423     3.965601
      3.961779     3.957957     3.954135     3.950313     3.946491     3.942669     3.938847     3.935024     3.931202     3.927380
      3.923558     3.919736     3.915914     3.912092     3.908270     3.904448     3.900626     3.896804     3.892982     3.889159
      3.885337     3.881515     3.877693     3.873871     3.870049     3.866227     3.862405     3.858583     3.854761     3.850939
      3.847116     3.843294     3.839472     3.835650     3.831828     3.828006     3.824184     3.820362     3.816540     3.812718
      3.808896     3.805073     3.801251     3.797429     3.793607     3.789785     3.785963     3.782141     3.778319     3.774497
      3.770675     3.766853     3.763031     3.759208     3.755386     3.751564     3.747742     3.743920     3.740098     3.736276
      3.732454     3.728632     3.724810     3.720988     3.717165     3.713343     3.709521     3.705699     3.701877     3.698055
      3.694233     3.690411     3.686589     3.682767     3.678945     3.675122     3.671300     3.667478     3.663656     3.659834
      3.656012     3.652190     3.648368     3.644546     3.640724     3.636902     3.633080     3.629257     3.625435     3.621613
      3.617791     3.613969     3.610147     3.606325     3.602503     3.598681     3.594859     3.591037     3.587214     3.583392
      3.579570     3.575748     3.571926     3.568104     3.564282     3.560460     3.556638     3.552816     3.548994     3.545171
      3.541349     3.537527     3.533705     3.529883     3.526061     3.522239     3.518417     3.514595     3.510773     3.506951
      3.503129     3.499306     3.495484     3.491662     3.487840     3.484018     3.480196     3.476374     3.472552     3.468730
      3.464908     3.461086     3.457263     3.453441     3.449619     3.445797     3.441975     3.438153     3.434331     3.430509
      3.426687     3.422865     3.419043     3.415220     3.411398     3.407576     3.403754     3.399932     3.396110     3.392288
      3.388466     3.384644     3.380822     3.377000     3.373178     3.369355     3.365533     3.361711     3.357889     3.354067
      3.350245     3.346423     3.342601     3.338779     3.334957     3.331135     3.327312     3.323490     3.319668     3.315846
      3.312024     3.308202     3.304380     3.300558     3.296736     3.292914     3.289092     3.285269     3.281447     3.277625
      3.273803     3.269981     3.266159     3.262337     3.258515     3.254693     3.250871     3.247049     3.243227     3.239404
      3.235582     3.231760     3.227938     3.224116     3.220294     3.216472     3.212650     3.208828     3.205006     3.201184
      3.197361     3.193539     3.189717     3.185895     3.182073     3.178251     3.174429     3.170607     3.166785     3.162963
      3.159141     3.155318     3.151496     3.147674     3.143852     3.140030     3.136208     3.132386     3.128564     3.124742
      3.120920     3.117098     3.113276     3.109453     3.105631     3.101809     3.097987     3.094165     3.090343     3.086521
      3.082699     3.078877     3.075055     3.071233     3.067410     3.063588     3.059766     3.055944     3.052122     3.048300
      3.044478     3.040656     3.036834     3.033012     3.029190     3.025367     3.021545     3.017723     3.013901     3.010079
      3.006257     3.002435     2.998613     2.994791     2.990969     2.987147     2.983325     2.979502     2.975680     2.971858
      2.968036     2.964214     2.960392     2.956570     2.952748     2.948926     2.945104     2.941282     2.937459     2.933637
      2.929815     2.925993     2.922171     2.918349     2.914527     2.910705     2.906883     2.903061     2.899239     2.895416
      2.891594     2.887772     2.883950     2.880128     2.876306     2.872484     2.868662     2.864840     2.861018     2.857196
      2.853374     2.849551     2.845729     2.841907     2.838085     2.834263     2.830441     2.826619     2.822797     2.818975
      2.815153     2.811331     2.807508     2.803686     2.799864     2.796042     2.792220     2.788398     2.784576     2.780754
      2.776932     2.773110     2.769288     2.765465     2.761643     2.757821     2.753999     2.750177     2.746355     2.742533
      2.738711     2.734889     2.731067     2.727245     2.723423     2.719600     2.715778     2.711956     2.708134     2.704312
      2.700490     2.696668     2.692846     2.689024     2.685202     2.681380     2.677557     2.673735     2.669913     2.666091
      2.662269     2.658447     2.654625     2.650803     2.646981     2.643159     2.639337     2.635514     2.631692     2.627870
      2.624048     2.620226     2.616404     2.612582     2.608760     2.604938     2.601116     2.597294     2.593472     2.589649
      2.585827     2.582005     2.578183     2.574361     2.570539     2.566717     2.562895     2.559073     2.555251     2.551429
      2.547606     2.543784     2.539962     2.536140     2.532318     2.528496     2.524674     2.520852     2.517030     2.513208
      2.509386     2.505563     2.501741     2.497919     2.494097     2.490275     2.486453     2.482631     2.478809     2.474987
      2.471165     2.467343     2.463521     2.459698     2.455876     2.452054     2.448232     2.444410     2.440588     2.436766
      2.432944     2.429122     2.425300     2.421478     2.417655     2.413833     2.410011     2.406189     2.402367     2.398545
      2.394723     2.390901     2.387079     2.383257     2.379435     2.375612     2.371790     2.367968     2.364146     2.360324
      2.356502     2.352680     2.348858     2.345036     2.341214     2.337392     2.333570     2.329747     2.325925     2.322103
      2.318281     2.314459     2.310637     2.306815     2.302993     2.299171     2.295349     2.291527     2.287704     2.283882
      2.280060     2.276238     2.272416     2.268594     2.264772     2.260950     2.257128     2.253306     2.249484     2.245661
      2.241839     2.238017     2.234195     2.230373     2.226551     2.222729     2.218907     2.215085     2.211263     2.207441
      2.203619     2.199796     2.195974     2.192152     2.188330     2.184508     2.180686     2.176864     2.173042     2.169220
      2.165398     2.161576     2.157753     2.153931     2.150109     2.146287     2.142465     2.138643     2.134821     2.130999
      2.127177     2.123355     2.119533     2.115710     2.111888     2.108066     2.104244     2.100422     2.096600     2.092778
      2.088956     2.085134     2.081312     2.077490     2.073668     2.069845     2.066023     2.062201     2.058379     2.054557
      2.050735     2.046913     2.043091     2.039269     2.035447     2.031625     2.027802     2.023980     2.020158     2.016336
      2.012514     2.008692     2.004870     2.001048     1.997226     1.993404     1.989582     1.985759     1.981937     1.978115
      1.974293     1.970471     1.966649     1.962827     1.959005     1.955183     1.951361     1.947539     1.943717     1.939894
      1.936072     1.932250     1.928428     1.924606     1.920784     1.916962     1.913140     1.909318     1.905496     1.901674
      1.897851     1.894029     1.890207     1.886385     1.882563     1.878741     1.874919     1.871097     1.867275     1.863453
      1.859631     1.855808     1.851986     1.848164     1.844342     1.840520     1.836698     1.832876     1.829054     1.825232
      1.821410     1.817588     1.813766     1.809943     1.806121     1.802299     1.798477     1.794655     1.790833     1.787011
      1.783189     1.779367     1.775545     1.771723     1.767900     1.764078     1.760256     1.756434     1.752612     1.748790
      1.744968     1.741146     1.737324     1.733502     1.729680     1.725857     1.722035     1.718213     1.714391     1.710569
      1.706747     1.702925     1.699103     1.695281     1.691459     1.687637     1.683815     1.679992     1.676170     1.672348
      1.668526     1.664704     1.660882     1.657060     1.653238     1.649416     1.645594     1.641772     1.637949     1.634127
      1.630305     1.626483     1.622661     1.618839     1.615017     1.611195     1.607373     1.603551     1.599729     1.595906
      1.592084     1.588262     1.584440     1.580618     1.576796     1.572974     1.569152     1.565330     1.561508     1.557686
      1.553864     1.550041     1.546219     1.542397     1.538575     1.534753     1.530931     1.527109     1.523287     1.519465
      1.515643     1.511821     1.507998     1.504176     1.500354     1.496532     1.492710     1.488888     1.485066     1.481244
      1.477422     1.473600     1.469778     1.465955     1.462133     1.458311     1.454489     1.450667     1.446845     1.443023
      1.439201     1.435379     1.431557     1.427735     1.423913     1.420090     1.416268     1.412446     1.408624     1.404802
      1.400980     1.397158     1.393336     1.389514     1.385692     1.381870     1.378047     1.374225     1.370403     1.366581
      1.362759     1.358937     1.355115     1.351293     1.347471     1.343649     1.339827     1.336004     1.332182     1.328360
      1.324538     1.320716     1.316894     1.313072     1.309250     1.305428     1.301606     1.297784     1.293962     1.290139
      1.286317     1.282495     1.278673     1.274851     1.271029     1.267207     1.263385     1.259563     1.255741     1.251919
      1.248096     1.244274     1.240452     1.236630     1.232808     1.228986     1.225164     1.221342     1.217520     1.213698
      1.209876     1.206053     1.202231     1.198409     1.194587     1.190765     1.186943     1.183121     1.179299     1.175477
      1.171655     1.167833     1.164011     1.160188     1.156366     1.152544     1.148722     1.144900     1.141078     1.137256
      1.133434     1.129612     1.125790     1.121968     1.118145     1.114323     1.110501     1.106679     1.102857     1.099035
      1.095213     1.091391     1.087569     1.083747     1.079925     1.076102     1.072280     1.068458     1.064636     1.060814
      1.056992     1.053170     1.049348     1.045526     1.041704     1.037882     1.034060     1.030237     1.026415     1.022593
      1.018771     1.014949     1.011127     1.007305     1.003483     0.999661     0.995839     0.992016     0.988194     0.984372
      0.980550     0.976728     0.972906     0.969083     0.965261     0.961439     0.957617     0.953795     0.949973     0.946151
      0.942328     0.938506     0.934684     0.930862     0.927040     0.923218     0.919396     0.915573     0.911751     0.907929
      0.904107     0.900285     0.896463     0.892641     0.888818     0.884996     0.881174     0.877352     0.873530     0.869708
      0.865885     0.862063     0.858241     0.854419     0.850597     0.846775     0.842953     0.839130     0.835308     0.831486
      0.827664     0.823842     0.820020     0.816198     0.812375     0.808553     0.804731     0.800909     0.797087     0.793265
      0.789443     0.785620     0.781798     0.777976     0.774154     0.770332     0.766510     0.762688     0.758865     0.755043
      0.751221     0.747399     0.743577     0.739755     0.735932     0.732110     0.728288     0.724466     0.720644     0.716822
      0.713000     0.709177     0.705355     0.701533     0.697711     0.693889     0.690067     0.686245     0.682422     0.678600
      0.674778     0.670956     0.667134     0.663312     0.659490     0.655667     0.651845     0.648023     0.644201     0.640379
      0.636557     0.632734     0.628912     0.625090     0.621268     0.617446     0.613624     0.609802     0.605979     0.602157
      0.598335     0.594513     0.590691     0.586869     0.583047     0.579224     0.575402     0.571580     0.567758     0.563936
      0.560114     0.556292     0.552469     0.548647     0.544825     0.541003     0.537181     0.533359     0.529536     0.525714
      0.521892     0.518070     0.514248     0.510426     0.506604     0.502781     0.498959
 NY phased data points follow
   4.82415E-01  4.74896E-01  5.04350E-01  5.21425E-01  4.97544E-01  4.73079E-01  5.19888E-01  4.99645E-01  5.24354E-01  5.22446E-01
   5.27568E-01  5.42552E-01  5.40627E-01  5.75122E-01  5.88622E-01  6.02219E-01  6.37314E-01  6.90738E-01  7.31255E-01  7.81301E-01
   8.09978E-01  8.87113E-01  9.51515E-01  1.04832E+00  1.09689E+00  1.17577E+00  1.27946E+00  1.31697E+00  1.35080E+00  1.41694E+00
   1.44189E+00  1.41409E+00  1.39418E+00  1.33572E+00  1.29979E+00  1.20740E+00  1.14278E+00  1.08369E+00  1.01074E+00  9.21978E-01
   8.58568E-01  8.19966E-01  7.44275E-01  6.88532E-01  6.77279E-01  6.55387E-01  6.11149E-01  5.64220E-01  5.93068E-01  5.98377E-01
   5.79778E-01  5.74582E-01  5.53140E-01  5.76951E-01  5.72333E-01  5.87064E-01  6.06348E-01  5.71783E-01  6.26729E-01  6.02926E-01
   6.35119E-01  6.36366E-01  6.40536E-01  6.92403E-01  6.95727E-01  7.12331E-01  7.42768E-01  7.53200E-01  7.70611E-01  8.02777E-01
   8.28223E-01  8.32262E-01  8.49914E-01  8.25349E-01  8.14823E-01  8.21314E-01  7.82337E-01  7.54690E-01  7.15112E-01  7.19088E-01
   7.17069E-01  6.97483E-01  7.15803E-01  7.12876E-01  7.01216E-01  7.02841E-01  6.88233E-01  6.69476E-01  7.30021E-01  6.32883E-01
   6.35781E-01  5.91069E-01  6.08057E-01  6.06294E-01  5.74736E-01  5.92839E-01  5.71347E-01  6.22755E-01  6.63974E-01  6.72764E-01
   6.88619E-01  7.45894E-01  7.59283E-01  7.53920E-01  7.39006E-01  7.17918E-01  7.05369E-01  6.62569E-01  6.00901E-01  5.71024E-01
   5.88863E-01  5.22492E-01  4.89072E-01  4.65137E-01  4.88077E-01  4.69703E-01  5.21841E-01  5.59843E-01  5.99645E-01  6.78686E-01
   7.29545E-01  7.66166E-01  8.22141E-01  8.48893E-01  8.74202E-01  8.87123E-01  8.60923E-01  8.39324E-01  8.26348E-01  8.00231E-01
   7.22530E-01  6.83962E-01  6.28219E-01  5.94496E-01  5.64940E-01  5.03891E-01  4.81789E-01  4.53577E-01  4.48841E-01  4.49401E-01
   4.10383E-01  4.14241E-01  4.44117E-01  3.97361E-01  3.95257E-01  3.95474E-01  4.23691E-01  3.91188E-01  3.91741E-01  4.09716E-01
   4.06734E-01  3.92527E-01  3.89108E-01  3.62175E-01  3.86749E-01  3.87941E-01  3.68948E-01  3.54640E-01  3.48440E-01  3.35128E-01
   3.27049E-01  3.14371E-01  3.38915E-01  3.33378E-01  3.37023E-01  3.09280E-01  3.28695E-01  2.68427E-01  3.37692E-01  3.21449E-01
   3.36314E-01  3.35209E-01  3.50996E-01  3.80172E-01  3.87006E-01  4.24537E-01  3.98486E-01  4.23567E-01  4.38345E-01  4.40435E-01
   4.41051E-01  4.17281E-01  3.93561E-01  3.70142E-01  3.75640E-01  3.69257E-01  3.55898E-01  3.58417E-01  3.29440E-01  3.46409E-01
   3.60315E-01  3.65473E-01  3.87539E-01  4.25679E-01  4.34799E-01  4.59393E-01  4.80931E-01  5.08082E-01  5.20551E-01  5.53494E-01
   5.89222E-01  6.06791E-01  5.79987E-01  6.04796E-01  5.91466E-01  6.21661E-01  6.44360E-01  6.60995E-01  6.93522E-01  7.97197E-01
   8.74028E-01  9.71748E-01  1.05243E+00  1.13184E+00  1.20133E+00  1.21652E+00  1.19028E+00  1.17227E+00  1.12189E+00  1.04507E+00
   9.63425E-01  8.84820E-01  8.19163E-01  7.43286E-01  6.85572E-01  6.21135E-01  5.90008E-01  5.45859E-01  4.87987E-01  4.45264E-01
   4.41545E-01  4.26784E-01  4.10781E-01  3.79690E-01  3.80991E-01  3.78576E-01  3.84573E-01  3.59447E-01  3.61580E-01  3.55243E-01
   3.44622E-01  3.49106E-01  3.68948E-01  3.77744E-01  3.81856E-01  3.75868E-01  3.94880E-01  3.90867E-01  3.99708E-01  3.98594E-01
   4.47331E-01  4.77177E-01  5.02307E-01  5.84753E-01  6.30967E-01  7.26061E-01  8.73361E-01  1.01587E+00  1.22243E+00  1.39960E+00
   1.57764E+00  1.72553E+00  1.75901E+00  1.82343E+00  1.82043E+00  1.70361E+00  1.63702E+00  1.48804E+00  1.34732E+00  1.20698E+00
   1.06661E+00  9.53064E-01  8.71913E-01  8.17303E-01  7.41078E-01  6.66039E-01  5.83303E-01  5.22472E-01  4.93778E-01  4.82567E-01
   4.35532E-01  4.01737E-01  3.71318E-01  3.60788E-01  3.35081E-01  3.15997E-01  3.23703E-01  3.22690E-01  3.39396E-01  3.50999E-01
   3.22132E-01  3.25935E-01  2.95956E-01  2.92871E-01  2.81619E-01  2.88089E-01  2.66553E-01  2.55371E-01  2.74719E-01  2.69306E-01
   2.63638E-01  2.74896E-01  2.28248E-01  2.19054E-01  2.19569E-01  2.04441E-01  2.09493E-01  1.84824E-01  2.10013E-01  2.23874E-01
   2.27000E-01  2.30187E-01  2.10715E-01  2.19483E-01  2.19267E-01  2.07040E-01  2.22035E-01  2.16651E-01  2.36047E-01  2.75982E-01
   2.23888E-01  2.43873E-01  2.64148E-01  3.03296E-01  2.91874E-01  2.96911E-01  3.34068E-01  3.37597E-01  3.29866E-01  3.45045E-01
   3.19464E-01  3.14435E-01  3.14441E-01  3.47917E-01  3.01321E-01  3.22495E-01  3.21510E-01  3.57981E-01  3.36810E-01  3.49592E-01
   3.31928E-01  2.96138E-01  2.84017E-01  2.52875E-01  2.33271E-01  2.46948E-01  2.14039E-01  1.86352E-01  2.00946E-01  1.98730E-01
   2.09616E-01  1.71521E-01  1.64442E-01  1.88725E-01  1.89172E-01  2.06776E-01  2.35653E-01  2.70815E-01  2.42090E-01  2.99984E-01
   2.93584E-01  3.35351E-01  3.16940E-01  2.95967E-01  3.53074E-01  3.30349E-01  3.50965E-01  3.61426E-01  3.53778E-01  3.81768E-01
   4.06410E-01  4.09780E-01  4.67075E-01  4.85529E-01  4.61363E-01  4.58550E-01  4.52249E-01  4.73424E-01  4.37402E-01  4.50203E-01
   4.24229E-01  4.20083E-01  4.18951E-01  4.04451E-01  3.82418E-01  3.67383E-01  3.52449E-01  3.18016E-01  3.23350E-01  2.97725E-01
   3.49201E-01  3.22706E-01  2.99873E-01  3.04040E-01  3.00062E-01  3.23142E-01  3.08535E-01  3.35268E-01  3.44433E-01  3.92619E-01
   3.91629E-01  4.31937E-01  4.22304E-01  4.34632E-01  4.34184E-01  4.71332E-01  4.76809E-01  4.74470E-01  4.79584E-01  5.04680E-01
   5.09546E-01  5.57419E-01  5.74419E-01  5.81817E-01  6.01188E-01  6.13355E-01  6.13743E-01  6.05171E-01  6.07451E-01  6.01008E-01
   5.75529E-01  5.56929E-01  5.30594E-01  5.30414E-01  4.88815E-01  4.55010E-01  4.63766E-01  4.52144E-01  4.43100E-01  4.41790E-01
   4.73633E-01  5.03177E-01  5.35953E-01  6.28910E-01  6.88587E-01  7.42727E-01  7.90011E-01  8.37845E-01  8.40960E-01  8.91203E-01
   8.58142E-01  8.48654E-01  8.02267E-01  7.21779E-01  6.97710E-01  6.39347E-01  5.66178E-01  5.51563E-01  5.36265E-01  5.28676E-01
   5.57618E-01  5.55986E-01  5.61136E-01  6.18593E-01  6.44860E-01  6.51746E-01  6.81064E-01  6.92110E-01  7.06157E-01  6.72421E-01
   6.33025E-01  6.44916E-01  6.18677E-01  5.90609E-01  5.99867E-01  5.87201E-01  5.76108E-01  5.57500E-01  5.59313E-01  5.62323E-01
   5.59838E-01  5.34183E-01  5.38084E-01  5.21743E-01  5.10849E-01  5.31206E-01  5.30670E-01  5.21952E-01  5.28961E-01  5.34583E-01
   5.18943E-01  5.28632E-01  5.31627E-01  5.20582E-01  5.43721E-01  5.53730E-01  5.56630E-01  5.23904E-01  5.05609E-01  5.20153E-01
   5.10512E-01  5.09235E-01  5.29155E-01  5.33978E-01  5.51937E-01  5.35980E-01  5.79870E-01  6.15256E-01  6.10261E-01  6.29889E-01
   6.79351E-01  7.27794E-01  7.16401E-01  7.16992E-01  7.11820E-01  7.19144E-01  7.25545E-01  7.22203E-01  7.26206E-01  7.43585E-01
   7.42972E-01  7.96309E-01  8.04718E-01  8.35873E-01  8.30612E-01  8.92707E-01  8.66429E-01  9.31446E-01  9.83778E-01  1.01491E+00
   1.09774E+00  1.19409E+00  1.35698E+00  1.56849E+00  1.81519E+00  2.05215E+00  2.34237E+00  2.56122E+00  2.70393E+00  2.73011E+00
   2.71399E+00  2.53771E+00  2.29661E+00  2.09465E+00  1.84608E+00  1.61062E+00  1.40643E+00  1.25439E+00  1.15325E+00  1.02973E+00
   9.17110E-01  8.31029E-01  7.61059E-01  6.70548E-01  6.35929E-01  6.26754E-01  5.68418E-01  5.29864E-01  5.13676E-01  4.39226E-01
   4.10485E-01  3.83343E-01  3.94690E-01  3.79833E-01  3.51167E-01  3.70743E-01  3.68538E-01  3.89354E-01  3.48019E-01  3.23430E-01
   3.34622E-01  3.49405E-01  3.46014E-01  3.48632E-01  3.12889E-01  3.53610E-01  3.08361E-01  3.18821E-01  3.05829E-01  3.39497E-01
   2.91356E-01  3.05821E-01  2.98694E-01  2.96643E-01  3.13986E-01  3.17579E-01  2.80288E-01  2.71688E-01  2.88129E-01  2.77270E-01
   2.84956E-01  2.88800E-01  2.81928E-01  2.49952E-01  2.59584E-01  2.64314E-01  2.70489E-01  2.49899E-01  2.47370E-01  2.57663E-01
   2.50462E-01  2.35479E-01  2.23697E-01  2.09718E-01  2.63556E-01  2.21941E-01  2.55664E-01  1.99997E-01  2.47308E-01  2.49800E-01
   2.21459E-01  2.38773E-01  2.59186E-01  2.24918E-01  2.00408E-01  2.33690E-01  2.43478E-01  2.52969E-01  2.41185E-01  2.11117E-01
   2.75635E-01  2.39454E-01  2.03800E-01  2.27847E-01  2.45063E-01  2.57789E-01  2.61050E-01  2.52129E-01  2.64544E-01  2.24239E-01
   2.59919E-01  2.54366E-01  2.54880E-01  2.38788E-01  2.71358E-01  2.54760E-01  2.39668E-01  2.42680E-01  2.46338E-01  2.56401E-01
   2.23189E-01  2.40091E-01  2.55803E-01  2.23106E-01  2.30644E-01  2.36251E-01  2.37930E-01  2.25459E-01  2.43080E-01  2.58167E-01
   2.32208E-01  2.15402E-01  2.00185E-01  2.10551E-01  2.17311E-01  2.39171E-01  2.35176E-01  2.17819E-01  1.99126E-01  2.07964E-01
   1.96654E-01  2.00682E-01  1.94002E-01  2.07863E-01  1.72774E-01  1.71274E-01  1.85523E-01  2.11634E-01  1.97728E-01  2.03738E-01
   2.06800E-01  1.97087E-01  2.04221E-01  1.98156E-01  1.68351E-01  2.05344E-01  1.70372E-01  1.92595E-01  2.04536E-01  1.87881E-01
   2.08541E-01  1.94306E-01  2.04618E-01  2.10304E-01  2.03272E-01  2.19888E-01  2.32421E-01  2.40835E-01  2.26443E-01  2.67125E-01
   2.51179E-01  2.73362E-01  2.60557E-01  2.54405E-01  2.59643E-01  2.41478E-01  2.76352E-01  2.89620E-01  2.65537E-01  2.76783E-01
   3.06262E-01  2.82779E-01  2.60863E-01  2.91520E-01  2.89253E-01  3.17424E-01  2.91072E-01  3.15994E-01  3.37228E-01  3.25059E-01
   3.41725E-01  3.56465E-01  3.54030E-01  3.06358E-01  3.08349E-01  3.11705E-01  2.87680E-01  2.61417E-01  2.80424E-01  2.44000E-01
   2.50677E-01  2.29280E-01  2.54060E-01  2.37813E-01  2.29697E-01  2.61867E-01  2.56190E-01  2.51300E-01  2.46020E-01  2.08343E-01
   2.30849E-01  2.09987E-01  2.11998E-01  2.00185E-01  1.61224E-01  1.88068E-01  2.10130E-01  1.94245E-01  1.98730E-01  1.95073E-01
   1.75502E-01  1.75002E-01  1.94363E-01  1.68363E-01  1.74448E-01  1.65466E-01  1.59014E-01  1.58523E-01  1.25811E-01  1.52769E-01
   1.17127E-01  1.13714E-01  1.42013E-01  1.28383E-01  9.11954E-02  1.15575E-01  6.84755E-02  6.45682E-02  8.27987E-02  4.86444E-02
   4.55522E-02  3.43194E-02  3.23752E-02  1.80045E-03  8.35794E-03 -3.43498E-03 -1.75830E-02 -2.57567E-02 -4.05156E-02 -1.02891E-02
  -4.74714E-02 -4.36917E-02 -7.16688E-02 -5.87216E-02 -7.14839E-02 -1.03788E-01 -7.25893E-02 -8.31882E-02 -8.84401E-02 -8.87080E-02
  -7.83551E-02 -5.83362E-02 -6.25696E-02 -6.93069E-02 -7.04980E-02 -7.70332E-02 -7.71579E-02 -6.67825E-02 -8.57642E-02 -7.30943E-02
  -6.61676E-02 -1.48638E-02 -6.43364E-02 -5.50095E-02 -3.59300E-02 -2.76201E-02 -2.86781E-02 -3.07295E-02 -3.91418E-02 -3.47159E-02
   1.46521E-02 -3.25281E-03  1.62065E-02  2.42227E-02  1.12385E-02  1.83201E-02  5.11193E-02  5.11528E-02  3.43896E-02  5.92354E-02
   1.00765E-01  9.13879E-02  1.01391E-01  1.06096E-01  1.02243E-01  1.15262E-01  1.35725E-01  1.30626E-01  1.38769E-01  1.27377E-01
   1.72367E-01  1.52683E-01  1.56596E-01  1.55439E-01  1.77414E-01  1.38689E-01  1.63296E-01  1.60599E-01  1.82350E-01  1.59550E-01
   1.72134E-01  1.61286E-01  1.87974E-01  1.79554E-01  1.96841E-01  1.41675E-01  1.57533E-01  1.57949E-01  1.60332E-01  1.24328E-01
   1.39085E-01  1.25622E-01  1.31398E-01  1.28791E-01  1.01346E-01  1.30436E-01  9.68724E-02  6.38840E-02  8.49413E-02  8.57667E-02
   6.73936E-02  7.22955E-02  5.21065E-02  1.64959E-02  4.04896E-02  2.54885E-02  5.72935E-02  3.17413E-02  5.23119E-02  4.20199E-02
   2.05811E-02  1.36836E-02 -6.66014E-03 -5.34648E-03  2.03170E-02  2.42377E-02  1.76266E-02  2.36170E-02  5.49992E-03 -1.83757E-02
  -3.91635E-03 -1.43832E-02 -2.48690E-03  6.19665E-03 -2.10911E-02 -3.54728E-03 -6.24333E-03 -1.31439E-02 -4.11237E-02 -3.19596E-03
  -2.04275E-02 -1.95365E-02 -1.65273E-02  1.24375E-03 -2.40544E-02  1.43110E-02 -2.04592E-04 -2.63163E-03  1.79087E-02  1.43177E-03
  -3.10314E-03  1.45613E-02  3.92862E-02  4.66349E-03  1.77486E-02  3.81241E-02  4.40295E-03  2.90301E-02  1.33428E-03  2.69125E-02
   2.58004E-02  1.04878E-02  2.10719E-02  2.91445E-02  5.86003E-02  8.63210E-03  3.59624E-02  3.08087E-02  1.96318E-02  4.29287E-02
   3.63847E-02  2.31897E-02  7.27217E-02  6.03081E-02  2.11269E-02  6.05906E-02  2.56479E-02  8.14781E-02  1.71424E-02  3.91462E-02
   4.86069E-02  3.72484E-02  3.30814E-02  4.71399E-02  6.71938E-02  5.75783E-02  3.04787E-02
 NY points of the fit to the data follow
   5.28171E-01  5.24845E-01  5.23139E-01  5.21348E-01  5.19237E-01  5.15412E-01  5.10354E-01  5.06072E-01  5.02595E-01  5.02756E-01
   5.06026E-01  5.11385E-01  5.23328E-01  5.43541E-01  5.68944E-01  5.98620E-01  6.31090E-01  6.65389E-01  7.09151E-01  7.65271E-01
   8.30061E-01  8.98777E-01  9.69876E-01  1.04686E+00  1.12458E+00  1.19497E+00  1.26008E+00  1.32159E+00  1.36405E+00  1.39527E+00
   1.42130E+00  1.42302E+00  1.39848E+00  1.35768E+00  1.30658E+00  1.23726E+00  1.15709E+00  1.08188E+00  1.00324E+00  9.24664E-01
   8.55754E-01  7.98637E-01  7.46735E-01  7.01077E-01  6.63577E-01  6.29744E-01  6.01125E-01  5.81192E-01  5.69535E-01  5.63701E-01
   5.61909E-01  5.63546E-01  5.65132E-01  5.67170E-01  5.72335E-01  5.80792E-01  5.90039E-01  5.99568E-01  6.09340E-01  6.18804E-01
   6.31500E-01  6.45284E-01  6.59752E-01  6.76187E-01  6.93644E-01  7.16288E-01  7.43690E-01  7.65204E-01  7.85958E-01  8.07906E-01
   8.22635E-01  8.34167E-01  8.39229E-01  8.35171E-01  8.24487E-01  8.06591E-01  7.87707E-01  7.67917E-01  7.46112E-01  7.28312E-01
   7.15269E-01  7.06442E-01  7.02138E-01  6.98350E-01  6.98755E-01  6.97994E-01  6.89090E-01  6.78565E-01  6.65439E-01  6.46737E-01
   6.26534E-01  6.10394E-01  5.96420E-01  5.85835E-01  5.83693E-01  5.90505E-01  6.05575E-01  6.29463E-01  6.61869E-01  6.96646E-01
   7.27411E-01  7.52219E-01  7.64764E-01  7.62606E-01  7.45381E-01  7.15564E-01  6.77534E-01  6.35169E-01  5.93461E-01  5.55887E-01
   5.25488E-01  5.01954E-01  4.84091E-01  4.75891E-01  4.79180E-01  4.93704E-01  5.17212E-01  5.53567E-01  6.00975E-01  6.56037E-01
   7.10065E-01  7.57868E-01  8.00785E-01  8.31245E-01  8.45243E-01  8.49201E-01  8.44482E-01  8.25863E-01  7.99366E-01  7.68531E-01
   7.32925E-01  6.93732E-01  6.49921E-01  6.10351E-01  5.72220E-01  5.35829E-01  5.06462E-01  4.83204E-01  4.69091E-01  4.59208E-01
   4.51916E-01  4.48175E-01  4.45493E-01  4.43361E-01  4.40934E-01  4.38993E-01  4.37768E-01  4.34876E-01  4.30270E-01  4.24317E-01
   4.15953E-01  4.05792E-01  3.93499E-01  3.81141E-01  3.68905E-01  3.56259E-01  3.45362E-01  3.35905E-01  3.28594E-01  3.23173E-01
   3.18591E-01  3.15615E-01  3.13570E-01  3.12143E-01  3.11703E-01  3.12499E-01  3.14343E-01  3.17358E-01  3.21569E-01  3.26382E-01
   3.31075E-01  3.37782E-01  3.49708E-01  3.64089E-01  3.80247E-01  3.97605E-01  4.15418E-01  4.31108E-01  4.40294E-01  4.41482E-01
