 LCModel (Version 6.3-0D) Copyright: S.W. Provencher.          Ref.: Magn. Reson. Med. 30:672-679 (1993).                
 S01_PRESS_35_act
 Data of: Dept of Radiology, The Johns Hopkins University School of Medicine
 24-February-2020  09:49
 32 lines in following concentration table = NCONC+1
    Conc.  %SD /Cr+PCr  Metabolite                                         
    0.000 999%   0.000 Asc                                                 
    5.015  14%   3.465 Asp                                                 
    3.040  13%   2.100 Cr                                                  
    0.146 283%   0.101 GABA                                                
    1.808   3%   1.249 GPC                                                 
    1.618   8%   1.118 GSH                                                 
    1.650  32%   1.140 Gln                                                 
   12.761   5%   8.818 Glu                                                 
   10.035   4%   6.934 Ins                                                 
    0.431  86%   0.298 Lac                                                 
   14.302   3%   9.883 NAA                                                 
    0.879  31%   0.607 NAAG                                                
    0.000 999%   0.000 PCh                                                 
    8.538   5%   5.900 PCr                                                 
    7.194  10%   4.971 PE                                                  
    0.488  14%   0.337 Scyllo                                              
    1.721  32%   1.189 Tau                                                 
    0.000 999%   0.000 -CrCH2                                              
    1.808   3%   1.249 PCh+GPC                                             
   11.577   2%   8.000 Cr+PCr                                              
   15.181   2%  10.490 NAA+NAAG                                            
   14.411   6%   9.958 Glu+Gln                                             
   33.438  22%  23.106 Lip13a                                              
    0.000 999%   0.000 Lip13b                                              
    9.576  28%   6.617 Lip09                                               
    7.262  26%   5.018 MM09                                                
    6.388  14%   4.414 Lip20                                               
    8.327  31%   5.754 MM20                                                
    5.317  24%   3.674 MM12                                                
   12.439  31%   8.595 MM14                                                
    8.641  27%   5.971 MM17                                                
   6 lines in following misc. output table
  FWHM = 0.038 ppm    S/N =  41                                            
  Data shift =-0.008 ppm                                                   
  Ph: -18 deg      -4.9 deg/ppm                                            
  alphaB,S = 2.9E-02,   4.0E-01                                            
   26 spline knots.   Ns =11(1)                                            
   6 inflections.     1 extrema                                            
  917 points on ppm-axis = NY
      4.000000     3.996178     3.992356     3.988534     3.984712     3.980890     3.977067     3.973245     3.969423     3.965601
      3.961779     3.957957     3.954135     3.950313     3.946491     3.942669     3.938847     3.935024     3.931202     3.927380
      3.923558     3.919736     3.915914     3.912092     3.908270     3.904448     3.900626     3.896804     3.892982     3.889159
      3.885337     3.881515     3.877693     3.873871     3.870049     3.866227     3.862405     3.858583     3.854761     3.850939
      3.847116     3.843294     3.839472     3.835650     3.831828     3.828006     3.824184     3.820362     3.816540     3.812718
      3.808896     3.805073     3.801251     3.797429     3.793607     3.789785     3.785963     3.782141     3.778319     3.774497
      3.770675     3.766853     3.763031     3.759208     3.755386     3.751564     3.747742     3.743920     3.740098     3.736276
      3.732454     3.728632     3.724810     3.720988     3.717165     3.713343     3.709521     3.705699     3.701877     3.698055
      3.694233     3.690411     3.686589     3.682767     3.678945     3.675122     3.671300     3.667478     3.663656     3.659834
      3.656012     3.652190     3.648368     3.644546     3.640724     3.636902     3.633080     3.629257     3.625435     3.621613
      3.617791     3.613969     3.610147     3.606325     3.602503     3.598681     3.594859     3.591037     3.587214     3.583392
      3.579570     3.575748     3.571926     3.568104     3.564282     3.560460     3.556638     3.552816     3.548994     3.545171
      3.541349     3.537527     3.533705     3.529883     3.526061     3.522239     3.518417     3.514595     3.510773     3.506951
      3.503129     3.499306     3.495484     3.491662     3.487840     3.484018     3.480196     3.476374     3.472552     3.468730
      3.464908     3.461086     3.457263     3.453441     3.449619     3.445797     3.441975     3.438153     3.434331     3.430509
      3.426687     3.422865     3.419043     3.415220     3.411398     3.407576     3.403754     3.399932     3.396110     3.392288
      3.388466     3.384644     3.380822     3.377000     3.373178     3.369355     3.365533     3.361711     3.357889     3.354067
      3.350245     3.346423     3.342601     3.338779     3.334957     3.331135     3.327312     3.323490     3.319668     3.315846
      3.312024     3.308202     3.304380     3.300558     3.296736     3.292914     3.289092     3.285269     3.281447     3.277625
      3.273803     3.269981     3.266159     3.262337     3.258515     3.254693     3.250871     3.247049     3.243227     3.239404
      3.235582     3.231760     3.227938     3.224116     3.220294     3.216472     3.212650     3.208828     3.205006     3.201184
      3.197361     3.193539     3.189717     3.185895     3.182073     3.178251     3.174429     3.170607     3.166785     3.162963
      3.159141     3.155318     3.151496     3.147674     3.143852     3.140030     3.136208     3.132386     3.128564     3.124742
      3.120920     3.117098     3.113276     3.109453     3.105631     3.101809     3.097987     3.094165     3.090343     3.086521
      3.082699     3.078877     3.075055     3.071233     3.067410     3.063588     3.059766     3.055944     3.052122     3.048300
      3.044478     3.040656     3.036834     3.033012     3.029190     3.025367     3.021545     3.017723     3.013901     3.010079
      3.006257     3.002435     2.998613     2.994791     2.990969     2.987147     2.983325     2.979502     2.975680     2.971858
      2.968036     2.964214     2.960392     2.956570     2.952748     2.948926     2.945104     2.941282     2.937459     2.933637
      2.929815     2.925993     2.922171     2.918349     2.914527     2.910705     2.906883     2.903061     2.899239     2.895416
      2.891594     2.887772     2.883950     2.880128     2.876306     2.872484     2.868662     2.864840     2.861018     2.857196
      2.853374     2.849551     2.845729     2.841907     2.838085     2.834263     2.830441     2.826619     2.822797     2.818975
      2.815153     2.811331     2.807508     2.803686     2.799864     2.796042     2.792220     2.788398     2.784576     2.780754
      2.776932     2.773110     2.769288     2.765465     2.761643     2.757821     2.753999     2.750177     2.746355     2.742533
      2.738711     2.734889     2.731067     2.727245     2.723423     2.719600     2.715778     2.711956     2.708134     2.704312
      2.700490     2.696668     2.692846     2.689024     2.685202     2.681380     2.677557     2.673735     2.669913     2.666091
      2.662269     2.658447     2.654625     2.650803     2.646981     2.643159     2.639337     2.635514     2.631692     2.627870
      2.624048     2.620226     2.616404     2.612582     2.608760     2.604938     2.601116     2.597294     2.593472     2.589649
      2.585827     2.582005     2.578183     2.574361     2.570539     2.566717     2.562895     2.559073     2.555251     2.551429
      2.547606     2.543784     2.539962     2.536140     2.532318     2.528496     2.524674     2.520852     2.517030     2.513208
      2.509386     2.505563     2.501741     2.497919     2.494097     2.490275     2.486453     2.482631     2.478809     2.474987
      2.471165     2.467343     2.463521     2.459698     2.455876     2.452054     2.448232     2.444410     2.440588     2.436766
      2.432944     2.429122     2.425300     2.421478     2.417655     2.413833     2.410011     2.406189     2.402367     2.398545
      2.394723     2.390901     2.387079     2.383257     2.379435     2.375612     2.371790     2.367968     2.364146     2.360324
      2.356502     2.352680     2.348858     2.345036     2.341214     2.337392     2.333570     2.329747     2.325925     2.322103
      2.318281     2.314459     2.310637     2.306815     2.302993     2.299171     2.295349     2.291527     2.287704     2.283882
      2.280060     2.276238     2.272416     2.268594     2.264772     2.260950     2.257128     2.253306     2.249484     2.245661
      2.241839     2.238017     2.234195     2.230373     2.226551     2.222729     2.218907     2.215085     2.211263     2.207441
      2.203619     2.199796     2.195974     2.192152     2.188330     2.184508     2.180686     2.176864     2.173042     2.169220
      2.165398     2.161576     2.157753     2.153931     2.150109     2.146287     2.142465     2.138643     2.134821     2.130999
      2.127177     2.123355     2.119533     2.115710     2.111888     2.108066     2.104244     2.100422     2.096600     2.092778
      2.088956     2.085134     2.081312     2.077490     2.073668     2.069845     2.066023     2.062201     2.058379     2.054557
      2.050735     2.046913     2.043091     2.039269     2.035447     2.031625     2.027802     2.023980     2.020158     2.016336
      2.012514     2.008692     2.004870     2.001048     1.997226     1.993404     1.989582     1.985759     1.981937     1.978115
      1.974293     1.970471     1.966649     1.962827     1.959005     1.955183     1.951361     1.947539     1.943717     1.939894
      1.936072     1.932250     1.928428     1.924606     1.920784     1.916962     1.913140     1.909318     1.905496     1.901674
      1.897851     1.894029     1.890207     1.886385     1.882563     1.878741     1.874919     1.871097     1.867275     1.863453
      1.859631     1.855808     1.851986     1.848164     1.844342     1.840520     1.836698     1.832876     1.829054     1.825232
      1.821410     1.817588     1.813766     1.809943     1.806121     1.802299     1.798477     1.794655     1.790833     1.787011
      1.783189     1.779367     1.775545     1.771723     1.767900     1.764078     1.760256     1.756434     1.752612     1.748790
      1.744968     1.741146     1.737324     1.733502     1.729680     1.725857     1.722035     1.718213     1.714391     1.710569
      1.706747     1.702925     1.699103     1.695281     1.691459     1.687637     1.683815     1.679992     1.676170     1.672348
      1.668526     1.664704     1.660882     1.657060     1.653238     1.649416     1.645594     1.641772     1.637949     1.634127
      1.630305     1.626483     1.622661     1.618839     1.615017     1.611195     1.607373     1.603551     1.599729     1.595906
      1.592084     1.588262     1.584440     1.580618     1.576796     1.572974     1.569152     1.565330     1.561508     1.557686
      1.553864     1.550041     1.546219     1.542397     1.538575     1.534753     1.530931     1.527109     1.523287     1.519465
      1.515643     1.511821     1.507998     1.504176     1.500354     1.496532     1.492710     1.488888     1.485066     1.481244
      1.477422     1.473600     1.469778     1.465955     1.462133     1.458311     1.454489     1.450667     1.446845     1.443023
      1.439201     1.435379     1.431557     1.427735     1.423913     1.420090     1.416268     1.412446     1.408624     1.404802
      1.400980     1.397158     1.393336     1.389514     1.385692     1.381870     1.378047     1.374225     1.370403     1.366581
      1.362759     1.358937     1.355115     1.351293     1.347471     1.343649     1.339827     1.336004     1.332182     1.328360
      1.324538     1.320716     1.316894     1.313072     1.309250     1.305428     1.301606     1.297784     1.293962     1.290139
      1.286317     1.282495     1.278673     1.274851     1.271029     1.267207     1.263385     1.259563     1.255741     1.251919
      1.248096     1.244274     1.240452     1.236630     1.232808     1.228986     1.225164     1.221342     1.217520     1.213698
      1.209876     1.206053     1.202231     1.198409     1.194587     1.190765     1.186943     1.183121     1.179299     1.175477
      1.171655     1.167833     1.164011     1.160188     1.156366     1.152544     1.148722     1.144900     1.141078     1.137256
      1.133434     1.129612     1.125790     1.121968     1.118145     1.114323     1.110501     1.106679     1.102857     1.099035
      1.095213     1.091391     1.087569     1.083747     1.079925     1.076102     1.072280     1.068458     1.064636     1.060814
      1.056992     1.053170     1.049348     1.045526     1.041704     1.037882     1.034060     1.030237     1.026415     1.022593
      1.018771     1.014949     1.011127     1.007305     1.003483     0.999661     0.995839     0.992016     0.988194     0.984372
      0.980550     0.976728     0.972906     0.969083     0.965261     0.961439     0.957617     0.953795     0.949973     0.946151
      0.942328     0.938506     0.934684     0.930862     0.927040     0.923218     0.919396     0.915573     0.911751     0.907929
      0.904107     0.900285     0.896463     0.892641     0.888818     0.884996     0.881174     0.877352     0.873530     0.869708
      0.865885     0.862063     0.858241     0.854419     0.850597     0.846775     0.842953     0.839130     0.835308     0.831486
      0.827664     0.823842     0.820020     0.816198     0.812375     0.808553     0.804731     0.800909     0.797087     0.793265
      0.789443     0.785620     0.781798     0.777976     0.774154     0.770332     0.766510     0.762688     0.758865     0.755043
      0.751221     0.747399     0.743577     0.739755     0.735932     0.732110     0.728288     0.724466     0.720644     0.716822
      0.713000     0.709177     0.705355     0.701533     0.697711     0.693889     0.690067     0.686245     0.682422     0.678600
      0.674778     0.670956     0.667134     0.663312     0.659490     0.655667     0.651845     0.648023     0.644201     0.640379
      0.636557     0.632734     0.628912     0.625090     0.621268     0.617446     0.613624     0.609802     0.605979     0.602157
      0.598335     0.594513     0.590691     0.586869     0.583047     0.579224     0.575402     0.571580     0.567758     0.563936
      0.560114     0.556292     0.552469     0.548647     0.544825     0.541003     0.537181     0.533359     0.529536     0.525714
      0.521892     0.518070     0.514248     0.510426     0.506604     0.502781     0.498959
 NY phased data points follow
   7.42505E-01  7.46271E-01  7.70992E-01  7.72563E-01  7.28739E-01  7.47612E-01  7.70691E-01  7.33602E-01  7.55440E-01  7.78975E-01
   7.94600E-01  7.94955E-01  7.74860E-01  8.18817E-01  7.74064E-01  7.55311E-01  8.17768E-01  8.84393E-01  9.16419E-01  9.63052E-01
   1.07069E+00  1.07294E+00  1.19927E+00  1.25158E+00  1.31181E+00  1.33740E+00  1.44977E+00  1.54839E+00  1.58894E+00  1.53073E+00
   1.48189E+00  1.40252E+00  1.39911E+00  1.36601E+00  1.29038E+00  1.26404E+00  1.14385E+00  9.85902E-01  8.31626E-01  8.45910E-01
   8.38814E-01  8.49872E-01  8.01262E-01  6.77970E-01  5.98669E-01  5.71894E-01  6.21667E-01  5.32057E-01  5.57257E-01  4.53508E-01
   4.72211E-01  4.81512E-01  4.57050E-01  4.44138E-01  3.92292E-01  3.54174E-01  4.54270E-01  5.26744E-01  4.90045E-01  4.94701E-01
   5.15697E-01  4.79496E-01  4.57879E-01  5.33150E-01  5.01073E-01  4.79944E-01  6.09372E-01  5.95792E-01  5.81765E-01  6.55460E-01
   5.54628E-01  6.16455E-01  5.90690E-01  6.21821E-01  5.60582E-01  5.26919E-01  5.26974E-01  5.24523E-01  4.90551E-01  4.59156E-01
   4.82940E-01  4.13615E-01  4.69874E-01  4.72943E-01  4.94530E-01  4.52592E-01  4.49055E-01  4.91168E-01  4.66483E-01  4.61010E-01
   4.09991E-01  3.69312E-01  3.43269E-01  3.96251E-01  3.68155E-01  3.41815E-01  3.71210E-01  4.12182E-01  4.59020E-01  5.35312E-01
   5.59977E-01  5.82131E-01  5.95038E-01  5.81764E-01  5.64247E-01  6.16391E-01  5.33361E-01  4.41718E-01  4.49738E-01  4.19869E-01
   4.28356E-01  3.68347E-01  3.35494E-01  3.20897E-01  3.52731E-01  3.95055E-01  4.55996E-01  4.52521E-01  4.62781E-01  5.48752E-01
   6.36289E-01  7.14306E-01  7.83023E-01  7.96113E-01  7.77644E-01  7.96617E-01  8.00741E-01  7.82756E-01  8.17247E-01  7.69383E-01
   7.16082E-01  6.56647E-01  6.15808E-01  5.64438E-01  5.46929E-01  5.55936E-01  5.35291E-01  5.16357E-01  4.79992E-01  4.75790E-01
   4.31012E-01  4.18312E-01  4.77021E-01  4.87038E-01  4.52013E-01  4.45635E-01  4.53876E-01  4.70301E-01  4.47717E-01  4.48607E-01
   4.13204E-01  4.58556E-01  4.19379E-01  4.30874E-01  3.99825E-01  3.92890E-01  4.09626E-01  4.14310E-01  4.54193E-01  4.46514E-01
   3.85405E-01  3.82102E-01  3.95438E-01  3.72170E-01  4.13937E-01  4.03010E-01  3.80190E-01  3.95896E-01  3.31563E-01  3.63620E-01
   3.77286E-01  4.31685E-01  4.21678E-01  4.39438E-01  4.19135E-01  3.93118E-01  4.35310E-01  4.85478E-01  5.02616E-01  4.45340E-01
   4.38566E-01  4.50031E-01  3.99344E-01  4.01874E-01  4.02672E-01  3.92681E-01  3.76659E-01  3.33341E-01  3.46636E-01  3.18937E-01
   3.53605E-01  3.72209E-01  4.44759E-01  4.71322E-01  5.10148E-01  4.91239E-01  5.35066E-01  5.48447E-01  5.46413E-01  5.54407E-01
   5.78822E-01  5.69764E-01  5.95678E-01  5.94843E-01  6.34288E-01  6.21757E-01  6.39953E-01  6.79168E-01  7.03295E-01  7.89951E-01
   9.07243E-01  1.03059E+00  1.10497E+00  1.15660E+00  1.16817E+00  1.17697E+00  1.13460E+00  1.13409E+00  1.09094E+00  1.05384E+00
   9.77520E-01  8.95549E-01  8.01174E-01  7.68679E-01  6.66019E-01  6.27878E-01  6.16273E-01  5.94205E-01  5.47258E-01  4.96140E-01
   4.62676E-01  4.64422E-01  4.21802E-01  4.22757E-01  3.92822E-01  3.57440E-01  3.82190E-01  3.87043E-01  4.07044E-01  3.95121E-01
   3.58300E-01  3.67597E-01  3.69852E-01  3.94493E-01  4.02591E-01  3.62913E-01  3.76587E-01  3.97068E-01  3.94898E-01  4.01260E-01
   4.26890E-01  4.52741E-01  4.75887E-01  5.68585E-01  6.16003E-01  7.23475E-01  8.43354E-01  9.87049E-01  1.12855E+00  1.29208E+00
   1.44522E+00  1.55957E+00  1.61731E+00  1.61948E+00  1.60429E+00  1.55022E+00  1.45127E+00  1.29896E+00  1.20575E+00  1.11239E+00
   1.03030E+00  9.22266E-01  8.22926E-01  7.46238E-01  6.77301E-01  6.50395E-01  6.00018E-01  5.47128E-01  5.05147E-01  4.72113E-01
   4.00856E-01  4.23961E-01  3.90480E-01  3.80458E-01  3.66026E-01  3.46993E-01  3.25267E-01  3.16453E-01  2.96737E-01  2.94905E-01
   2.96737E-01  2.62159E-01  2.98191E-01  3.03503E-01  2.63422E-01  2.88288E-01  2.43812E-01  2.61144E-01  2.49960E-01  2.41147E-01
   2.28110E-01  2.12884E-01  2.08511E-01  2.66542E-01  2.37001E-01  2.25838E-01  2.12294E-01  2.31818E-01  2.36999E-01  2.24435E-01
   2.15267E-01  1.91688E-01  2.34078E-01  1.87129E-01  2.01994E-01  1.99192E-01  2.08684E-01  2.19692E-01  1.79726E-01  2.24431E-01
   2.18776E-01  2.42165E-01  2.71472E-01  2.62236E-01  2.73409E-01  3.06915E-01  3.03584E-01  2.95014E-01  3.12136E-01  3.05988E-01
   3.28896E-01  2.77665E-01  2.83880E-01  2.73188E-01  2.69975E-01  2.84111E-01  3.16306E-01  3.04719E-01  2.89357E-01  3.17662E-01
   2.70038E-01  2.17060E-01  2.34596E-01  2.31991E-01  2.02948E-01  1.86690E-01  1.94368E-01  1.84273E-01  1.95542E-01  1.82662E-01
   1.37100E-01  1.50800E-01  1.92119E-01  1.62755E-01  1.75898E-01  1.30739E-01  1.70554E-01  1.72671E-01  1.97427E-01  2.33142E-01
   2.26595E-01  2.88118E-01  2.76738E-01  3.09737E-01  2.94215E-01  2.79602E-01  2.71401E-01  2.84975E-01  3.03849E-01  3.41069E-01
   3.82912E-01  3.80490E-01  4.17405E-01  4.02614E-01  4.11084E-01  4.26968E-01  3.87610E-01  3.85849E-01  3.87357E-01  4.37669E-01
   3.94350E-01  3.65845E-01  3.22554E-01  3.43976E-01  3.19129E-01  3.18958E-01  2.57685E-01  2.81695E-01  2.63772E-01  2.75500E-01
   2.57745E-01  2.59301E-01  2.36458E-01  2.77395E-01  2.48506E-01  2.88577E-01  2.89775E-01  3.02963E-01  3.32753E-01  3.26189E-01
   3.39988E-01  3.78358E-01  3.96992E-01  4.00956E-01  4.12188E-01  3.88367E-01  4.31557E-01  4.46838E-01  4.46913E-01  4.99300E-01
   4.86840E-01  5.35601E-01  5.06655E-01  5.34564E-01  5.71707E-01  5.51819E-01  5.93495E-01  6.09839E-01  5.48454E-01  5.54020E-01
   5.62700E-01  5.46848E-01  5.15594E-01  5.28042E-01  5.10804E-01  4.55674E-01  4.30163E-01  4.44481E-01  4.30900E-01  4.74892E-01
   4.57863E-01  5.23485E-01  5.47041E-01  6.00350E-01  6.19498E-01  6.79248E-01  7.35604E-01  7.52082E-01  7.91852E-01  8.33446E-01
   7.91498E-01  7.99135E-01  7.56933E-01  6.90365E-01  6.64236E-01  6.16313E-01  5.90332E-01  5.62915E-01  5.01032E-01  5.27767E-01
   5.21755E-01  5.33504E-01  5.76868E-01  5.84633E-01  5.95582E-01  6.33486E-01  6.33266E-01  6.47164E-01  6.63204E-01  6.23912E-01
   6.32108E-01  6.19616E-01  6.01545E-01  6.19024E-01  5.72813E-01  5.81689E-01  5.46097E-01  5.63718E-01  5.51426E-01  5.16637E-01
   5.47974E-01  5.46719E-01  5.20677E-01  5.16605E-01  5.05804E-01  5.11073E-01  4.87356E-01  5.11838E-01  5.17952E-01  4.83144E-01
   5.25658E-01  4.86873E-01  4.87891E-01  5.05789E-01  5.40875E-01  5.41907E-01  5.55348E-01  5.27843E-01  5.05999E-01  5.10233E-01
   5.12257E-01  4.90122E-01  5.40997E-01  5.10209E-01  5.36395E-01  5.51261E-01  5.62782E-01  5.89001E-01  6.14599E-01  6.42795E-01
   6.77358E-01  6.85814E-01  6.88294E-01  6.70595E-01  7.11705E-01  7.09305E-01  7.51643E-01  7.16759E-01  7.11679E-01  7.04712E-01
   7.71341E-01  7.64826E-01  8.08334E-01  8.09129E-01  8.13423E-01  8.63215E-01  9.12836E-01  9.63171E-01  9.99464E-01  1.07973E+00
   1.13913E+00  1.28107E+00  1.40789E+00  1.54930E+00  1.77935E+00  1.97318E+00  2.12032E+00  2.26550E+00  2.37777E+00  2.42721E+00
   2.32659E+00  2.23871E+00  2.07362E+00  1.88977E+00  1.70427E+00  1.50984E+00  1.36092E+00  1.22325E+00  1.06855E+00  9.60632E-01
   8.97384E-01  7.96230E-01  7.30378E-01  6.66686E-01  6.20397E-01  5.43159E-01  4.72267E-01  4.70297E-01  4.09061E-01  3.75660E-01
   3.67047E-01  3.45196E-01  3.11880E-01  3.09951E-01  2.73020E-01  2.37522E-01  2.79448E-01  2.67579E-01  2.46839E-01  2.48513E-01
   2.10490E-01  2.10425E-01  2.21248E-01  1.96463E-01  2.10467E-01  2.07054E-01  2.33949E-01  1.85883E-01  1.74710E-01  2.09894E-01
   1.72945E-01  1.71257E-01  1.62641E-01  1.49325E-01  1.48301E-01  1.53013E-01  1.47351E-01  1.87600E-01  1.58779E-01  1.62050E-01
   1.53218E-01  1.07283E-01  1.32662E-01  1.40816E-01  1.32345E-01  1.51081E-01  1.13344E-01  1.20889E-01  1.37635E-01  9.63341E-02
   1.35869E-01  1.16411E-01  1.10697E-01  1.35572E-01  9.73369E-02  1.20759E-01  1.12333E-01  8.13871E-02  8.47000E-02  6.20223E-02
   7.71580E-02  9.84968E-02  1.06305E-01  8.80127E-02  1.11576E-01  9.38360E-02  8.80505E-02  8.85484E-02  1.08079E-01  7.72404E-02
   9.36771E-02  6.80523E-02  9.60740E-02  1.05019E-01  1.14825E-01  1.02043E-01  9.17903E-02  8.22285E-02  5.42200E-02  8.20872E-02
   1.17214E-01  5.69621E-02  8.42918E-02  1.12710E-01  8.42306E-02  9.81788E-02  8.60328E-02  9.24910E-02  8.34946E-02  1.02141E-01
   8.52043E-02  1.10580E-01  1.13792E-01  1.17652E-01  9.44060E-02  1.30145E-01  1.09300E-01  8.84828E-02  1.36993E-01  1.11010E-01
   1.12827E-01  7.11912E-02  1.08126E-01  1.01993E-01  6.24254E-02  9.48304E-02  7.92575E-02  7.48347E-02  8.20934E-02  7.24905E-02
   8.59218E-02  6.36465E-02  9.68557E-02  6.64394E-02  8.98129E-02  3.90629E-02  8.94501E-02  5.09218E-02  7.17368E-02  6.64135E-02
   7.73158E-02  2.86363E-02  2.97714E-02  8.01738E-02  8.29646E-02  1.70851E-02  4.02891E-02  2.83738E-02  3.87412E-02  6.17875E-02
   3.02022E-02  3.21427E-02  2.70157E-02  8.52056E-02  4.60604E-02  4.36554E-02  7.53641E-02  6.43665E-02  4.65658E-02  7.32917E-02
   6.34352E-02  7.96543E-02  8.67475E-02  5.16982E-02  9.12695E-02  8.44461E-02  1.01005E-01  9.29973E-02  9.69265E-02  8.42211E-02
   6.26996E-02  7.81350E-02  8.72458E-02  8.48292E-02  9.40624E-02  8.40609E-02  7.06364E-02  8.73928E-02  9.96136E-02  1.14759E-01
   1.06153E-01  9.41158E-02  5.68483E-02  7.39590E-02  5.14641E-02  5.75575E-02  4.64920E-02  1.07476E-02  1.21537E-03  5.34149E-03
  -5.54086E-03 -4.81796E-02 -1.77705E-02 -4.14874E-02 -4.32943E-02 -5.83890E-02 -3.28366E-02 -7.17410E-02 -6.60085E-02 -6.53833E-02
  -4.52064E-02 -8.33722E-02 -1.14346E-01 -1.06575E-01 -1.12132E-01 -1.53218E-01 -1.38499E-01 -1.46682E-01 -1.68561E-01 -1.75175E-01
  -1.67171E-01 -2.18552E-01 -2.13888E-01 -2.57150E-01 -2.31493E-01 -2.67422E-01 -2.78306E-01 -2.74488E-01 -2.98671E-01 -3.06984E-01
  -3.25219E-01 -3.47188E-01 -3.59288E-01 -3.82922E-01 -3.78198E-01 -3.91432E-01 -4.44868E-01 -4.13206E-01 -4.53550E-01 -4.69233E-01
  -4.79991E-01 -4.88067E-01 -5.20692E-01 -5.29565E-01 -5.26962E-01 -5.25051E-01 -5.55383E-01 -5.73394E-01 -5.57443E-01 -5.71938E-01
  -5.90581E-01 -6.28156E-01 -6.01546E-01 -6.20399E-01 -6.20547E-01 -6.33380E-01 -6.51418E-01 -6.63688E-01 -6.51789E-01 -6.46699E-01
  -6.37145E-01 -6.69045E-01 -6.77333E-01 -6.72594E-01 -6.79548E-01 -6.77841E-01 -6.97024E-01 -6.72138E-01 -6.55968E-01 -6.71779E-01
  -6.80397E-01 -6.37679E-01 -6.51858E-01 -6.52754E-01 -6.64590E-01 -6.37892E-01 -6.13514E-01 -6.27074E-01 -6.21183E-01 -6.01407E-01
  -5.84613E-01 -5.73090E-01 -5.72649E-01 -5.24137E-01 -5.37401E-01 -5.18271E-01 -4.98889E-01 -5.17072E-01 -4.69975E-01 -4.86858E-01
  -4.74852E-01 -4.25486E-01 -4.35352E-01 -4.18200E-01 -4.27884E-01 -4.13401E-01 -3.93955E-01 -3.64877E-01 -3.62341E-01 -3.27568E-01
  -3.38544E-01 -3.37789E-01 -3.18701E-01 -3.18385E-01 -2.89247E-01 -2.89286E-01 -2.57420E-01 -2.51986E-01 -2.10910E-01 -2.12833E-01
  -2.21793E-01 -2.01728E-01 -1.80398E-01 -1.77805E-01 -1.92902E-01 -1.79406E-01 -1.71472E-01 -1.87993E-01 -1.98665E-01 -1.70613E-01
  -1.85796E-01 -1.66338E-01 -1.88212E-01 -1.94021E-01 -1.90740E-01 -1.70716E-01 -1.63043E-01 -2.14214E-01 -1.84263E-01 -1.69431E-01
  -1.98952E-01 -2.20366E-01 -1.86477E-01 -2.31784E-01 -1.97710E-01 -2.24553E-01 -2.08307E-01 -2.47989E-01 -2.43380E-01 -2.29781E-01
  -2.12518E-01 -2.17867E-01 -2.32375E-01 -2.23127E-01 -2.41561E-01 -2.34802E-01 -2.30512E-01 -2.28709E-01 -2.33809E-01 -2.43914E-01
  -2.25959E-01 -2.24148E-01 -2.14940E-01 -2.37546E-01 -2.37914E-01 -1.80100E-01 -2.30163E-01 -2.23966E-01 -2.47163E-01 -2.12491E-01
  -2.75543E-01 -2.07806E-01 -2.42446E-01 -2.34426E-01 -2.26501E-01 -1.95399E-01 -2.20098E-01 -2.41294E-01 -2.24721E-01 -2.19539E-01
  -1.92000E-01 -2.18960E-01 -2.42992E-01 -1.90152E-01 -2.20350E-01 -2.57292E-01 -2.04131E-01 -1.60095E-01 -2.06021E-01 -2.33488E-01
  -1.99135E-01 -2.18325E-01 -2.28390E-01 -2.16655E-01 -1.87002E-01 -2.20030E-01 -1.73655E-01 -2.10000E-01 -2.41019E-01 -1.73546E-01
  -2.03270E-01 -2.07223E-01 -2.03923E-01 -2.14032E-01 -1.91274E-01 -1.97511E-01 -2.16997E-01 -1.73599E-01 -1.89686E-01 -1.98627E-01
  -2.22322E-01 -2.12333E-01 -1.64853E-01 -1.99073E-01 -1.73679E-01 -1.84810E-01 -1.79718E-01
 NY points of the fit to the data follow
   8.27538E-01  8.13698E-01  8.01120E-01  7.87139E-01  7.76459E-01  7.74209E-01  7.69753E-01  7.58612E-01  7.48034E-01  7.40282E-01
   7.35469E-01  7.34949E-01  7.40355E-01  7.49874E-01  7.63375E-01  7.85546E-01  8.15493E-01  8.52375E-01  8.99936E-01  9.55920E-01
   1.01431E+00  1.08292E+00  1.16981E+00  1.25630E+00  1.32983E+00  1.39354E+00  1.45194E+00  1.50313E+00  1.52538E+00  1.51538E+00
   1.49155E+00  1.45165E+00  1.39299E+00  1.32749E+00  1.25597E+00  1.17647E+00  1.09540E+00  1.01310E+00  9.44603E-01  8.95673E-01
   8.38732E-01  7.74914E-01  7.13140E-01  6.61199E-01  6.26478E-01  5.95415E-01  5.62655E-01  5.35279E-01  5.14661E-01  5.00442E-01
   4.91770E-01  4.83976E-01  4.79193E-01  4.78023E-01  4.77045E-01  4.73671E-01  4.73471E-01  4.80119E-01  4.81867E-01  4.81327E-01
   4.87167E-01  4.90820E-01  4.97554E-01  5.13694E-01  5.23308E-01  5.29752E-01  5.44549E-01  5.59509E-01  5.76450E-01  5.88296E-01
   5.88518E-01  5.94869E-01  5.96856E-01  5.86255E-01  5.81747E-01  5.73062E-01  5.51721E-01  5.31701E-01  5.11317E-01  4.98108E-01
   4.92882E-01  4.81849E-01  4.73326E-01  4.68028E-01  4.61172E-01  4.55571E-01  4.43293E-01  4.29916E-01  4.20494E-01  4.06202E-01
   3.92298E-01  3.81176E-01  3.73254E-01  3.76127E-01  3.87588E-01  4.05101E-01  4.32643E-01  4.63616E-01  4.97885E-01  5.34758E-01
   5.67240E-01  5.92806E-01  6.04599E-01  6.03350E-01  5.91065E-01  5.67807E-01  5.34026E-01  4.97212E-01  4.62087E-01  4.26866E-01
   3.96990E-01  3.73821E-01  3.58197E-01  3.54746E-01  3.62170E-01  3.80657E-01  4.15931E-01  4.64409E-01  5.13169E-01  5.63158E-01
   6.21027E-01  6.74719E-01  7.20285E-01  7.54597E-01  7.77410E-01  7.92001E-01  7.92160E-01  7.78757E-01  7.61863E-01  7.38742E-01
   7.05212E-01  6.67337E-01  6.28287E-01  5.92862E-01  5.64717E-01  5.35150E-01  5.09358E-01  4.92813E-01  4.77954E-01  4.66977E-01
   4.61095E-01  4.59783E-01  4.63078E-01  4.65167E-01  4.63913E-01  4.62769E-01  4.61998E-01  4.59239E-01  4.55660E-01  4.52365E-01
   4.46889E-01  4.39180E-01  4.31252E-01  4.23373E-01  4.17900E-01  4.13427E-01  4.08102E-01  4.02965E-01  3.97430E-01  3.92961E-01
   3.88403E-01  3.83310E-01  3.78960E-01  3.74312E-01  3.70015E-01  3.67955E-01  3.68304E-01  3.70857E-01  3.75137E-01  3.79409E-01
   3.85307E-01  3.95009E-01  4.06761E-01  4.15542E-01  4.28041E-01  4.44213E-01  4.51896E-01  4.56430E-01  4.62058E-01  4.61113E-01
