 LCModel (Version 6.3-0D) Copyright: S.W. Provencher.          Ref.: Magn. Reson. Med. 30:672-679 (1993).                
 S02_PRESS_35_act
 Data of: Dept of Radiology, The Johns Hopkins University School of Medicine
 24-February-2020  09:49
 32 lines in following concentration table = NCONC+1
    Conc.  %SD /Cr+PCr  Metabolite                                         
 8.21E-02 386% 6.3E-02 Asc                                                 
    3.904  15%   3.019 Asp                                                 
    5.249   6%   4.060 Cr                                                  
    1.403  24%   1.085 GABA                                                
    1.345  13%   1.040 GPC                                                 
    1.711   8%   1.323 GSH                                                 
    2.869  17%   2.219 Gln                                                 
   13.193   5%  10.204 Glu                                                 
    7.639   4%   5.908 Ins                                                 
    0.108 233% 8.4E-02 Lac                                                 
   15.199   2%  11.755 NAA                                                 
    0.307  74%   0.237 NAAG                                                
    0.558  32%   0.432 PCh                                                 
    5.095   6%   3.940 PCr                                                 
    4.774  12%   3.692 PE                                                  
    0.388  14%   0.300 Scyllo                                              
    0.620  68%   0.479 Tau                                                 
    0.000 999%   0.000 -CrCH2                                              
    1.903   3%   1.472 PCh+GPC                                             
   10.344   1%   8.000 Cr+PCr                                              
   15.506   1%  11.992 NAA+NAAG                                            
   16.063   5%  12.423 Glu+Gln                                             
   13.863  28%  10.722 Lip13a                                              
    0.000 999%   0.000 Lip13b                                              
    3.559  37%   2.753 Lip09                                               
    4.494  35%   3.475 MM09                                                
    2.725  23%   2.108 Lip20                                               
    8.046  23%   6.223 MM20                                                
    1.998  50%   1.545 MM12                                                
    5.102  31%   3.946 MM14                                                
    4.921  26%   3.806 MM17                                                
   6 lines in following misc. output table
  FWHM = 0.034 ppm    S/N =  49                                            
  Data shift =-0.004 ppm                                                   
  Ph: -26 deg      -9.0 deg/ppm                                            
  alphaB,S = 4.0E-02,   4.0E-01                                            
   26 spline knots.   Ns =10(1)                                            
   4 inflections.     2 extrema                                            
  917 points on ppm-axis = NY
      4.000000     3.996178     3.992356     3.988534     3.984712     3.980890     3.977067     3.973245     3.969423     3.965601
      3.961779     3.957957     3.954135     3.950313     3.946491     3.942669     3.938847     3.935024     3.931202     3.927380
      3.923558     3.919736     3.915914     3.912092     3.908270     3.904448     3.900626     3.896804     3.892982     3.889159
      3.885337     3.881515     3.877693     3.873871     3.870049     3.866227     3.862405     3.858583     3.854761     3.850939
      3.847116     3.843294     3.839472     3.835650     3.831828     3.828006     3.824184     3.820362     3.816540     3.812718
      3.808896     3.805073     3.801251     3.797429     3.793607     3.789785     3.785963     3.782141     3.778319     3.774497
      3.770675     3.766853     3.763031     3.759208     3.755386     3.751564     3.747742     3.743920     3.740098     3.736276
      3.732454     3.728632     3.724810     3.720988     3.717165     3.713343     3.709521     3.705699     3.701877     3.698055
      3.694233     3.690411     3.686589     3.682767     3.678945     3.675122     3.671300     3.667478     3.663656     3.659834
      3.656012     3.652190     3.648368     3.644546     3.640724     3.636902     3.633080     3.629257     3.625435     3.621613
      3.617791     3.613969     3.610147     3.606325     3.602503     3.598681     3.594859     3.591037     3.587214     3.583392
      3.579570     3.575748     3.571926     3.568104     3.564282     3.560460     3.556638     3.552816     3.548994     3.545171
      3.541349     3.537527     3.533705     3.529883     3.526061     3.522239     3.518417     3.514595     3.510773     3.506951
      3.503129     3.499306     3.495484     3.491662     3.487840     3.484018     3.480196     3.476374     3.472552     3.468730
      3.464908     3.461086     3.457263     3.453441     3.449619     3.445797     3.441975     3.438153     3.434331     3.430509
      3.426687     3.422865     3.419043     3.415220     3.411398     3.407576     3.403754     3.399932     3.396110     3.392288
      3.388466     3.384644     3.380822     3.377000     3.373178     3.369355     3.365533     3.361711     3.357889     3.354067
      3.350245     3.346423     3.342601     3.338779     3.334957     3.331135     3.327312     3.323490     3.319668     3.315846
      3.312024     3.308202     3.304380     3.300558     3.296736     3.292914     3.289092     3.285269     3.281447     3.277625
      3.273803     3.269981     3.266159     3.262337     3.258515     3.254693     3.250871     3.247049     3.243227     3.239404
      3.235582     3.231760     3.227938     3.224116     3.220294     3.216472     3.212650     3.208828     3.205006     3.201184
      3.197361     3.193539     3.189717     3.185895     3.182073     3.178251     3.174429     3.170607     3.166785     3.162963
      3.159141     3.155318     3.151496     3.147674     3.143852     3.140030     3.136208     3.132386     3.128564     3.124742
      3.120920     3.117098     3.113276     3.109453     3.105631     3.101809     3.097987     3.094165     3.090343     3.086521
      3.082699     3.078877     3.075055     3.071233     3.067410     3.063588     3.059766     3.055944     3.052122     3.048300
      3.044478     3.040656     3.036834     3.033012     3.029190     3.025367     3.021545     3.017723     3.013901     3.010079
      3.006257     3.002435     2.998613     2.994791     2.990969     2.987147     2.983325     2.979502     2.975680     2.971858
      2.968036     2.964214     2.960392     2.956570     2.952748     2.948926     2.945104     2.941282     2.937459     2.933637
      2.929815     2.925993     2.922171     2.918349     2.914527     2.910705     2.906883     2.903061     2.899239     2.895416
      2.891594     2.887772     2.883950     2.880128     2.876306     2.872484     2.868662     2.864840     2.861018     2.857196
      2.853374     2.849551     2.845729     2.841907     2.838085     2.834263     2.830441     2.826619     2.822797     2.818975
      2.815153     2.811331     2.807508     2.803686     2.799864     2.796042     2.792220     2.788398     2.784576     2.780754
      2.776932     2.773110     2.769288     2.765465     2.761643     2.757821     2.753999     2.750177     2.746355     2.742533
      2.738711     2.734889     2.731067     2.727245     2.723423     2.719600     2.715778     2.711956     2.708134     2.704312
      2.700490     2.696668     2.692846     2.689024     2.685202     2.681380     2.677557     2.673735     2.669913     2.666091
      2.662269     2.658447     2.654625     2.650803     2.646981     2.643159     2.639337     2.635514     2.631692     2.627870
      2.624048     2.620226     2.616404     2.612582     2.608760     2.604938     2.601116     2.597294     2.593472     2.589649
      2.585827     2.582005     2.578183     2.574361     2.570539     2.566717     2.562895     2.559073     2.555251     2.551429
      2.547606     2.543784     2.539962     2.536140     2.532318     2.528496     2.524674     2.520852     2.517030     2.513208
      2.509386     2.505563     2.501741     2.497919     2.494097     2.490275     2.486453     2.482631     2.478809     2.474987
      2.471165     2.467343     2.463521     2.459698     2.455876     2.452054     2.448232     2.444410     2.440588     2.436766
      2.432944     2.429122     2.425300     2.421478     2.417655     2.413833     2.410011     2.406189     2.402367     2.398545
      2.394723     2.390901     2.387079     2.383257     2.379435     2.375612     2.371790     2.367968     2.364146     2.360324
      2.356502     2.352680     2.348858     2.345036     2.341214     2.337392     2.333570     2.329747     2.325925     2.322103
      2.318281     2.314459     2.310637     2.306815     2.302993     2.299171     2.295349     2.291527     2.287704     2.283882
      2.280060     2.276238     2.272416     2.268594     2.264772     2.260950     2.257128     2.253306     2.249484     2.245661
      2.241839     2.238017     2.234195     2.230373     2.226551     2.222729     2.218907     2.215085     2.211263     2.207441
      2.203619     2.199796     2.195974     2.192152     2.188330     2.184508     2.180686     2.176864     2.173042     2.169220
      2.165398     2.161576     2.157753     2.153931     2.150109     2.146287     2.142465     2.138643     2.134821     2.130999
      2.127177     2.123355     2.119533     2.115710     2.111888     2.108066     2.104244     2.100422     2.096600     2.092778
      2.088956     2.085134     2.081312     2.077490     2.073668     2.069845     2.066023     2.062201     2.058379     2.054557
      2.050735     2.046913     2.043091     2.039269     2.035447     2.031625     2.027802     2.023980     2.020158     2.016336
      2.012514     2.008692     2.004870     2.001048     1.997226     1.993404     1.989582     1.985759     1.981937     1.978115
      1.974293     1.970471     1.966649     1.962827     1.959005     1.955183     1.951361     1.947539     1.943717     1.939894
      1.936072     1.932250     1.928428     1.924606     1.920784     1.916962     1.913140     1.909318     1.905496     1.901674
      1.897851     1.894029     1.890207     1.886385     1.882563     1.878741     1.874919     1.871097     1.867275     1.863453
      1.859631     1.855808     1.851986     1.848164     1.844342     1.840520     1.836698     1.832876     1.829054     1.825232
      1.821410     1.817588     1.813766     1.809943     1.806121     1.802299     1.798477     1.794655     1.790833     1.787011
      1.783189     1.779367     1.775545     1.771723     1.767900     1.764078     1.760256     1.756434     1.752612     1.748790
      1.744968     1.741146     1.737324     1.733502     1.729680     1.725857     1.722035     1.718213     1.714391     1.710569
      1.706747     1.702925     1.699103     1.695281     1.691459     1.687637     1.683815     1.679992     1.676170     1.672348
      1.668526     1.664704     1.660882     1.657060     1.653238     1.649416     1.645594     1.641772     1.637949     1.634127
      1.630305     1.626483     1.622661     1.618839     1.615017     1.611195     1.607373     1.603551     1.599729     1.595906
      1.592084     1.588262     1.584440     1.580618     1.576796     1.572974     1.569152     1.565330     1.561508     1.557686
      1.553864     1.550041     1.546219     1.542397     1.538575     1.534753     1.530931     1.527109     1.523287     1.519465
      1.515643     1.511821     1.507998     1.504176     1.500354     1.496532     1.492710     1.488888     1.485066     1.481244
      1.477422     1.473600     1.469778     1.465955     1.462133     1.458311     1.454489     1.450667     1.446845     1.443023
      1.439201     1.435379     1.431557     1.427735     1.423913     1.420090     1.416268     1.412446     1.408624     1.404802
      1.400980     1.397158     1.393336     1.389514     1.385692     1.381870     1.378047     1.374225     1.370403     1.366581
      1.362759     1.358937     1.355115     1.351293     1.347471     1.343649     1.339827     1.336004     1.332182     1.328360
      1.324538     1.320716     1.316894     1.313072     1.309250     1.305428     1.301606     1.297784     1.293962     1.290139
      1.286317     1.282495     1.278673     1.274851     1.271029     1.267207     1.263385     1.259563     1.255741     1.251919
      1.248096     1.244274     1.240452     1.236630     1.232808     1.228986     1.225164     1.221342     1.217520     1.213698
      1.209876     1.206053     1.202231     1.198409     1.194587     1.190765     1.186943     1.183121     1.179299     1.175477
      1.171655     1.167833     1.164011     1.160188     1.156366     1.152544     1.148722     1.144900     1.141078     1.137256
      1.133434     1.129612     1.125790     1.121968     1.118145     1.114323     1.110501     1.106679     1.102857     1.099035
      1.095213     1.091391     1.087569     1.083747     1.079925     1.076102     1.072280     1.068458     1.064636     1.060814
      1.056992     1.053170     1.049348     1.045526     1.041704     1.037882     1.034060     1.030237     1.026415     1.022593
      1.018771     1.014949     1.011127     1.007305     1.003483     0.999661     0.995839     0.992016     0.988194     0.984372
      0.980550     0.976728     0.972906     0.969083     0.965261     0.961439     0.957617     0.953795     0.949973     0.946151
      0.942328     0.938506     0.934684     0.930862     0.927040     0.923218     0.919396     0.915573     0.911751     0.907929
      0.904107     0.900285     0.896463     0.892641     0.888818     0.884996     0.881174     0.877352     0.873530     0.869708
      0.865885     0.862063     0.858241     0.854419     0.850597     0.846775     0.842953     0.839130     0.835308     0.831486
      0.827664     0.823842     0.820020     0.816198     0.812375     0.808553     0.804731     0.800909     0.797087     0.793265
      0.789443     0.785620     0.781798     0.777976     0.774154     0.770332     0.766510     0.762688     0.758865     0.755043
      0.751221     0.747399     0.743577     0.739755     0.735932     0.732110     0.728288     0.724466     0.720644     0.716822
      0.713000     0.709177     0.705355     0.701533     0.697711     0.693889     0.690067     0.686245     0.682422     0.678600
      0.674778     0.670956     0.667134     0.663312     0.659490     0.655667     0.651845     0.648023     0.644201     0.640379
      0.636557     0.632734     0.628912     0.625090     0.621268     0.617446     0.613624     0.609802     0.605979     0.602157
      0.598335     0.594513     0.590691     0.586869     0.583047     0.579224     0.575402     0.571580     0.567758     0.563936
      0.560114     0.556292     0.552469     0.548647     0.544825     0.541003     0.537181     0.533359     0.529536     0.525714
      0.521892     0.518070     0.514248     0.510426     0.506604     0.502781     0.498959
 NY phased data points follow
   4.99610E-01  4.99671E-01  5.29627E-01  5.12898E-01  5.28577E-01  5.25492E-01  5.15727E-01  5.15907E-01  5.50612E-01  5.07358E-01
   5.61354E-01  5.47200E-01  5.28406E-01  6.06427E-01  5.72918E-01  5.83398E-01  6.62154E-01  6.64852E-01  7.27475E-01  7.36265E-01
   7.92253E-01  8.15379E-01  9.30462E-01  9.88014E-01  1.03667E+00  1.09903E+00  1.15493E+00  1.19661E+00  1.24819E+00  1.24750E+00
   1.23440E+00  1.21712E+00  1.22169E+00  1.19127E+00  1.13921E+00  1.06613E+00  9.78042E-01  9.16822E-01  8.79549E-01  8.26285E-01
   7.74182E-01  7.35415E-01  6.91226E-01  6.56891E-01  6.49782E-01  6.72193E-01  5.97980E-01  6.10116E-01  5.72357E-01  5.93451E-01
   5.44731E-01  5.66266E-01  5.70240E-01  5.50999E-01  5.80287E-01  5.38962E-01  5.38048E-01  5.67521E-01  5.54268E-01  5.93244E-01
   6.15694E-01  6.59793E-01  6.31269E-01  6.21612E-01  6.45426E-01  6.61435E-01  6.68499E-01  7.28396E-01  7.33900E-01  7.50760E-01
   7.57548E-01  7.61371E-01  7.94324E-01  7.59015E-01  7.85294E-01  7.10545E-01  7.03787E-01  7.03259E-01  6.58809E-01  6.28875E-01
   6.11021E-01  6.31879E-01  6.39978E-01  6.50193E-01  6.71642E-01  6.45228E-01  6.55077E-01  6.09090E-01  5.89277E-01  6.18747E-01
   5.40128E-01  5.43620E-01  4.97486E-01  5.33015E-01  5.01644E-01  5.34692E-01  5.81669E-01  5.79003E-01  6.14916E-01  5.93405E-01
   6.61005E-01  6.94604E-01  7.14935E-01  6.61503E-01  6.38993E-01  6.23494E-01  6.15625E-01  5.73899E-01  5.30396E-01  4.96085E-01
   4.74708E-01  4.15662E-01  4.33569E-01  3.84253E-01  3.75350E-01  4.11984E-01  4.55000E-01  4.82020E-01  5.19466E-01  5.82938E-01
   6.24743E-01  6.48249E-01  7.02321E-01  7.36889E-01  7.98031E-01  7.68963E-01  7.67810E-01  7.32137E-01  7.07241E-01  6.76744E-01
   6.20253E-01  5.92535E-01  5.45312E-01  5.12223E-01  4.63929E-01  4.78800E-01  4.56139E-01  4.16204E-01  4.03833E-01  3.65718E-01
   3.55512E-01  3.37464E-01  3.54012E-01  3.83261E-01  3.41246E-01  3.25982E-01  3.68900E-01  3.61365E-01  3.69600E-01  3.44005E-01
   3.45513E-01  3.05804E-01  3.23026E-01  3.35529E-01  3.13317E-01  3.13975E-01  3.32445E-01  3.47248E-01  3.41057E-01  3.22434E-01
   3.15281E-01  2.86726E-01  3.18547E-01  2.82206E-01  2.88919E-01  2.58795E-01  2.77517E-01  2.60269E-01  2.84447E-01  2.93443E-01
   2.91698E-01  2.95285E-01  3.11058E-01  3.44441E-01  3.25633E-01  3.41609E-01  3.54040E-01  3.34895E-01  3.46269E-01  3.91872E-01
   3.65158E-01  3.89767E-01  3.43451E-01  3.58993E-01  3.14608E-01  3.19091E-01  2.93151E-01  3.15212E-01  3.22340E-01  2.95717E-01
   3.43871E-01  3.22131E-01  3.82634E-01  3.69682E-01  4.41661E-01  4.23883E-01  4.26898E-01  4.65232E-01  4.92440E-01  4.84665E-01
   5.10134E-01  5.13441E-01  5.08097E-01  5.63684E-01  5.63165E-01  5.33606E-01  5.63280E-01  6.02033E-01  6.51214E-01  7.27148E-01
   8.28430E-01  8.94471E-01  9.94841E-01  1.06132E+00  1.09679E+00  1.13829E+00  1.06861E+00  1.06402E+00  9.64363E-01  9.29983E-01
   8.75657E-01  7.78076E-01  7.00959E-01  6.54198E-01  5.89665E-01  5.75307E-01  4.97042E-01  4.36966E-01  4.42459E-01  4.13946E-01
   3.86999E-01  3.78790E-01  3.48115E-01  3.38475E-01  3.74986E-01  3.41377E-01  3.24019E-01  3.01253E-01  3.30805E-01  3.27880E-01
   3.51499E-01  3.54686E-01  3.44683E-01  3.06827E-01  3.72452E-01  3.53612E-01  3.74092E-01  3.57009E-01  3.43948E-01  3.80546E-01
   4.25518E-01  4.15654E-01  4.53960E-01  5.09664E-01  5.57096E-01  6.65976E-01  7.48836E-01  9.05578E-01  1.07287E+00  1.18465E+00
   1.35004E+00  1.48584E+00  1.51956E+00  1.52839E+00  1.52398E+00  1.46493E+00  1.34215E+00  1.23238E+00  1.10744E+00  1.04881E+00
   9.21216E-01  7.95450E-01  7.17595E-01  6.62050E-01  6.19750E-01  6.03230E-01  5.49015E-01  4.70548E-01  4.30574E-01  3.89202E-01
   3.50982E-01  3.17410E-01  3.13543E-01  2.91858E-01  3.35162E-01  2.87844E-01  3.12500E-01  2.81983E-01  2.58117E-01  2.47536E-01
   2.70178E-01  2.76048E-01  2.62528E-01  2.32381E-01  2.29725E-01  2.01120E-01  2.35195E-01  2.27021E-01  2.27182E-01  2.20563E-01
   1.90330E-01  1.83742E-01  1.81533E-01  2.12554E-01  2.25257E-01  1.71836E-01  1.75970E-01  1.56376E-01  1.81757E-01  1.60012E-01
   1.73171E-01  1.70580E-01  1.74352E-01  1.71164E-01  1.56582E-01  1.95367E-01  1.75615E-01  1.59557E-01  1.63931E-01  1.57851E-01
   2.07057E-01  2.23957E-01  1.81006E-01  2.17888E-01  2.02679E-01  2.38778E-01  2.87177E-01  2.55697E-01  2.81846E-01  2.63619E-01
   2.75665E-01  2.62263E-01  2.59470E-01  2.74978E-01  2.60789E-01  2.62134E-01  2.82712E-01  2.82835E-01  2.59299E-01  2.66444E-01
   2.68723E-01  2.46138E-01  2.28736E-01  2.12133E-01  2.29455E-01  1.79198E-01  1.58324E-01  1.64114E-01  1.17640E-01  1.27205E-01
   1.15366E-01  9.16824E-02  1.26404E-01  1.16335E-01  1.73871E-01  1.82092E-01  1.75324E-01  2.01428E-01  2.24824E-01  2.16208E-01
   2.88875E-01  2.67110E-01  2.84387E-01  2.79776E-01  2.56424E-01  3.07223E-01  3.09280E-01  3.17900E-01  3.70097E-01  3.50616E-01
   3.68933E-01  3.85902E-01  3.90398E-01  4.06241E-01  4.04737E-01  4.41139E-01  4.32556E-01  4.04979E-01  4.14868E-01  4.07423E-01
   3.89482E-01  3.79628E-01  3.82327E-01  3.62559E-01  3.22315E-01  3.10330E-01  3.27518E-01  2.98109E-01  3.14601E-01  2.89026E-01
   2.66298E-01  2.91289E-01  3.01883E-01  2.48449E-01  2.58733E-01  2.72548E-01  2.78432E-01  2.62434E-01  2.79183E-01  3.12106E-01
   3.00714E-01  3.74231E-01  3.70635E-01  3.93708E-01  3.77047E-01  3.76273E-01  4.24242E-01  3.97798E-01  4.15655E-01  4.51772E-01
   4.38749E-01  5.26599E-01  5.56165E-01  5.30176E-01  5.80331E-01  5.59040E-01  5.75704E-01  5.66048E-01  5.63132E-01  5.35431E-01
   5.37709E-01  5.23862E-01  4.86901E-01  4.74706E-01  4.30397E-01  4.37954E-01  4.17359E-01  4.01064E-01  4.13007E-01  4.24197E-01
   4.45273E-01  4.54797E-01  4.55359E-01  5.32200E-01  6.25645E-01  6.45268E-01  7.23024E-01  7.81709E-01  7.61536E-01  7.90605E-01
   8.16528E-01  7.97966E-01  7.39807E-01  6.39922E-01  6.47094E-01  5.71008E-01  5.52640E-01  4.95675E-01  4.88162E-01  4.48055E-01
   4.74611E-01  5.21842E-01  5.38300E-01  5.55297E-01  5.70343E-01  6.44315E-01  6.11526E-01  6.54046E-01  6.36382E-01  6.11438E-01
   5.94420E-01  5.72196E-01  6.10596E-01  5.66071E-01  5.82780E-01  5.38636E-01  5.37977E-01  5.53777E-01  5.60530E-01  5.04727E-01
   4.75555E-01  5.13051E-01  4.95335E-01  4.91557E-01  4.66893E-01  4.73298E-01  4.96026E-01  4.85150E-01  4.84072E-01  4.90323E-01
   5.11851E-01  4.60362E-01  4.94047E-01  5.46527E-01  4.93821E-01  5.04241E-01  5.14504E-01  5.19493E-01  4.94527E-01  4.91153E-01
   4.80983E-01  5.08162E-01  4.73519E-01  4.73903E-01  4.68533E-01  5.30018E-01  5.02598E-01  5.52094E-01  5.91960E-01  5.97224E-01
   6.34659E-01  6.50609E-01  6.72211E-01  6.72796E-01  6.79636E-01  6.83466E-01  6.90144E-01  6.95537E-01  7.22368E-01  7.08452E-01
   7.42304E-01  7.26712E-01  7.30592E-01  7.43293E-01  7.62596E-01  8.01229E-01  8.68053E-01  9.00423E-01  9.51985E-01  9.77728E-01
   1.07478E+00  1.10053E+00  1.27270E+00  1.43940E+00  1.70728E+00  1.95236E+00  2.24198E+00  2.42130E+00  2.52283E+00  2.60642E+00
   2.56499E+00  2.44689E+00  2.21043E+00  2.01518E+00  1.78640E+00  1.56425E+00  1.37015E+00  1.21294E+00  1.09802E+00  9.75475E-01
   8.84648E-01  8.38898E-01  7.19065E-01  6.80179E-01  6.50414E-01  5.83552E-01  5.11338E-01  4.70977E-01  4.39448E-01  3.76257E-01
   3.94490E-01  3.67350E-01  3.43474E-01  3.33346E-01  3.21271E-01  3.02059E-01  3.20851E-01  2.93573E-01  2.81359E-01  2.92141E-01
   2.76215E-01  3.16540E-01  2.84914E-01  3.06791E-01  2.56707E-01  2.57056E-01  2.77285E-01  2.56344E-01  2.38626E-01  2.44352E-01
   2.09992E-01  2.44908E-01  2.60200E-01  2.22128E-01  2.38563E-01  2.08349E-01  2.32195E-01  2.62256E-01  2.15701E-01  2.02312E-01
   2.25407E-01  1.95366E-01  2.04235E-01  1.98955E-01  2.42117E-01  1.91707E-01  2.44504E-01  2.19990E-01  2.33736E-01  1.79528E-01
   2.17647E-01  2.02737E-01  1.88369E-01  1.86218E-01  2.10906E-01  1.91567E-01  2.20777E-01  2.27496E-01  1.59721E-01  2.25507E-01
   2.26130E-01  1.95554E-01  1.69506E-01  1.70908E-01  1.86605E-01  2.18689E-01  2.25032E-01  1.98427E-01  2.38932E-01  1.77928E-01
   2.13718E-01  2.45936E-01  1.77921E-01  2.35736E-01  2.59713E-01  2.36559E-01  2.20949E-01  2.42200E-01  2.30722E-01  2.42481E-01
   2.20744E-01  2.50265E-01  2.36383E-01  2.42405E-01  2.40537E-01  2.36723E-01  2.55111E-01  2.15189E-01  2.49876E-01  2.43617E-01
   2.44272E-01  2.42512E-01  2.30441E-01  2.50177E-01  2.35978E-01  2.64606E-01  2.20953E-01  2.33674E-01  2.15249E-01  2.27878E-01
   2.09399E-01  2.09019E-01  2.35669E-01  1.94147E-01  1.84070E-01  2.14623E-01  2.16805E-01  1.80971E-01  1.80324E-01  1.96639E-01
   1.90502E-01  1.80244E-01  1.78308E-01  1.59266E-01  1.79084E-01  1.74548E-01  1.89803E-01  1.41806E-01  2.07760E-01  1.63592E-01
   1.93449E-01  1.68810E-01  2.06384E-01  1.86469E-01  1.86883E-01  1.92690E-01  2.09540E-01  1.80224E-01  1.90667E-01  1.54075E-01
   1.68268E-01  2.12066E-01  1.85732E-01  1.81653E-01  1.64703E-01  2.09201E-01  2.38395E-01  2.37249E-01  2.36465E-01  2.23871E-01
   2.40995E-01  2.50899E-01  2.45580E-01  2.27676E-01  2.54382E-01  2.44300E-01  2.04237E-01  2.62334E-01  2.29558E-01  2.62091E-01
   2.78478E-01  2.76756E-01  2.61955E-01  2.94423E-01  2.26534E-01  2.65924E-01  2.82563E-01  2.78516E-01  2.49581E-01  2.86938E-01
   2.91034E-01  2.99380E-01  3.04805E-01  2.88041E-01  3.07523E-01  2.58106E-01  2.50605E-01  2.60800E-01  2.37382E-01  2.24701E-01
   2.00382E-01  2.10307E-01  2.08504E-01  2.16895E-01  2.03177E-01  2.33854E-01  2.03634E-01  2.19141E-01  2.04948E-01  1.48964E-01
   1.85387E-01  2.18063E-01  1.77859E-01  1.84657E-01  1.93207E-01  1.80099E-01  1.48985E-01  2.04927E-01  1.57646E-01  1.82598E-01
   1.87938E-01  1.30779E-01  1.60675E-01  1.65998E-01  1.69660E-01  1.50149E-01  1.62240E-01  1.68872E-01  1.67650E-01  1.14220E-01
   1.33894E-01  1.31083E-01  1.61263E-01  1.37269E-01  1.56516E-01  1.40626E-01  1.38087E-01  1.30088E-01  9.79683E-02  1.63202E-01
   1.27516E-01  1.26430E-01  8.22019E-02  1.20247E-01  8.23441E-02  7.11918E-02  6.38335E-02  8.24826E-02  4.43584E-02  5.67809E-02
   6.93148E-02  4.22278E-02  5.76855E-02  2.99045E-02  7.33226E-02  5.40942E-02  1.48388E-02  5.83630E-02  1.23636E-02  3.27349E-02
   4.66691E-02  5.91433E-02  5.60317E-02  5.48992E-02  7.03009E-02 -7.70571E-04  2.13971E-02  5.64422E-02  5.11454E-02  3.88433E-02
   4.18095E-02  6.71043E-02  3.48079E-02  6.11171E-02  5.60820E-02  1.03163E-01  7.97357E-02  6.01552E-02  4.70444E-02  7.66393E-02
   8.19398E-02  9.04734E-02  6.57994E-02  1.07409E-01  1.11482E-01  9.92543E-02  1.17889E-01  1.19431E-01  1.49626E-01  1.38883E-01
   2.02584E-01  1.65905E-01  1.95101E-01  1.83713E-01  1.97053E-01  1.74279E-01  2.22053E-01  2.25416E-01  2.24906E-01  2.17757E-01
   2.58298E-01  2.26646E-01  2.63525E-01  2.34559E-01  2.44833E-01  2.63728E-01  2.69463E-01  2.58988E-01  2.53688E-01  2.78082E-01
   2.79457E-01  2.53949E-01  2.94940E-01  3.05673E-01  2.75241E-01  2.82456E-01  2.77212E-01  2.55770E-01  2.89736E-01  2.55283E-01
   2.57245E-01  2.50927E-01  2.25446E-01  2.44461E-01  2.38704E-01  2.10968E-01  1.85521E-01  2.16238E-01  1.92937E-01  1.60291E-01
   1.59328E-01  1.77299E-01  1.67255E-01  1.60150E-01  1.67048E-01  1.09485E-01  1.50491E-01  1.04094E-01  1.37686E-01  1.15693E-01
   1.18272E-01  9.52661E-02  1.03429E-01  1.22259E-01  1.14698E-01  6.38480E-02  9.14425E-02  9.40845E-02  6.82829E-02  1.11463E-01
   6.72071E-02  4.88770E-02  7.05045E-02  8.10624E-02  8.91709E-02  7.24622E-02  7.96618E-02  9.67276E-02  1.01930E-01  8.12131E-02
   6.52281E-02  6.25127E-02  8.03071E-02  6.59525E-02  7.39207E-02  9.44388E-02  6.44748E-02  7.84952E-02  5.23924E-02  9.61966E-02
   6.97105E-02  6.24328E-02  1.03682E-01  6.57677E-02  1.01646E-01  1.11895E-01  8.25190E-02  6.80152E-02  7.86393E-02  9.40635E-02
   6.43821E-02  8.40847E-02  7.86784E-02  6.79859E-02  7.69732E-02  9.32551E-02  5.35754E-02  9.53107E-02  7.18743E-02  8.81779E-02
   8.37035E-02  6.56762E-02  6.82999E-02  9.11863E-02  9.25082E-02  1.17119E-01  1.06284E-01  9.28788E-02  8.11294E-02  9.68556E-02
   8.94182E-02  7.13540E-02  1.19485E-01  8.67092E-02  1.15452E-01  1.18004E-01  8.59527E-02
 NY points of the fit to the data follow
   5.58605E-01  5.53721E-01  5.45470E-01  5.39478E-01  5.38442E-01  5.30912E-01  5.20016E-01  5.13960E-01  5.09319E-01  5.08687E-01
   5.15378E-01  5.26294E-01  5.39503E-01  5.55799E-01  5.77131E-01  6.02551E-01  6.27527E-01  6.50664E-01  6.85363E-01  7.37674E-01
   7.94679E-01  8.58305E-01  9.33914E-01  9.99438E-01  1.05015E+00  1.10615E+00  1.16091E+00  1.19911E+00  1.22452E+00  1.24637E+00
   1.25556E+00  1.24653E+00  1.22271E+00  1.18627E+00  1.14420E+00  1.08009E+00  1.01186E+00  9.59738E-01  9.00157E-01  8.33325E-01
   7.75902E-01  7.30191E-01  6.83578E-01  6.45221E-01  6.21563E-01  5.98108E-01  5.74420E-01  5.56081E-01  5.43858E-01  5.38596E-01
   5.38028E-01  5.40664E-01  5.44557E-01  5.47100E-01  5.51092E-01  5.58473E-01  5.67725E-01  5.77202E-01  5.87700E-01  5.94823E-01
   5.99538E-01  6.11856E-01  6.27171E-01  6.42531E-01  6.60843E-01  6.78726E-01  6.98983E-01  7.21193E-01  7.38346E-01  7.53026E-01
   7.65384E-01  7.71166E-01  7.72218E-01  7.71873E-01  7.60746E-01  7.40499E-01  7.24687E-01  7.05250E-01  6.81990E-01  6.67848E-01
   6.54827E-01  6.42682E-01  6.34968E-01  6.28401E-01  6.26367E-01  6.24281E-01  6.14393E-01  6.04762E-01  5.95173E-01  5.80330E-01
   5.62443E-01  5.47797E-01  5.36702E-01  5.27741E-01  5.25298E-01  5.32564E-01  5.46391E-01  5.66584E-01  5.96641E-01  6.28643E-01
   6.56368E-01  6.76488E-01  6.84543E-01  6.78544E-01  6.59783E-01  6.30851E-01  5.94778E-01  5.55603E-01  5.17261E-01  4.83611E-01
   4.56647E-01  4.34365E-01  4.17444E-01  4.08399E-01  4.10696E-01  4.25056E-01  4.47910E-01  4.84180E-01  5.28901E-01  5.73865E-01
   6.19184E-01  6.64001E-01  6.99634E-01  7.23191E-01  7.36111E-01  7.39391E-01  7.35400E-01  7.18421E-01  6.91497E-01  6.64529E-01
   6.33762E-01  5.94750E-01  5.56056E-01  5.25790E-01  4.93555E-01  4.62733E-01  4.38700E-01  4.18675E-01  4.08365E-01  3.99565E-01
   3.92636E-01  3.92826E-01  3.92136E-01  3.89180E-01  3.86531E-01  3.84610E-01  3.83358E-01  3.80762E-01  3.75848E-01  3.70357E-01
   3.63958E-01  3.54869E-01  3.44693E-01  3.36589E-01  3.28348E-01  3.19249E-01  3.11537E-01  3.04508E-01  2.98767E-01  2.93677E-01
   2.88397E-01  2.85023E-01  2.82216E-01  2.79431E-01  2.77976E-01  2.78079E-01  2.79432E-01  2.82055E-01  2.85936E-01  2.90490E-01
   2.95375E-01  2.99089E-01  3.03734E-01  3.12651E-01  3.23530E-01  3.35905E-01  3.50979E-01  3.63753E-01  3.70488E-01  3.75145E-01
