 LCModel (Version 6.3-0D) Copyright: S.W. Provencher.          Ref.: Magn. Reson. Med. 30:672-679 (1993).                
 S09_PRESS_35_act
 Data of: Dept of Radiology, The Johns Hopkins University School of Medicine
 24-February-2020  09:52
 32 lines in following concentration table = NCONC+1
    Conc.  %SD /Cr+PCr  Metabolite                                         
 6.79E-02 540% 4.3E-02 Asc                                                 
    5.786  11%   3.633 Asp                                                 
    6.422   6%   4.032 Cr                                                  
    1.153  36%   0.724 GABA                                                
    1.540  14%   0.967 GPC                                                 
    1.966   7%   1.234 GSH                                                 
    2.639  21%   1.657 Gln                                                 
   14.865   5%   9.334 Glu                                                 
    9.522   4%   5.979 Ins                                                 
    0.000 999%   0.000 Lac                                                 
   14.779   3%   9.280 NAA                                                 
    0.573  51%   0.360 NAAG                                                
    0.788  25%   0.495 PCh                                                 
    6.319   7%   3.968 PCr                                                 
    4.540  16%   2.851 PE                                                  
    0.666  10%   0.418 Scyllo                                              
    1.235  44%   0.776 Tau                                                 
 9.81E-02 216% 6.2E-02 -CrCH2                                              
    2.328   3%   1.462 PCh+GPC                                             
   12.741   1%   8.000 Cr+PCr                                              
   15.352   2%   9.640 NAA+NAAG                                            
   17.504   5%  10.991 Glu+Gln                                             
   20.623  18%  12.949 Lip13a                                              
    0.000 999%   0.000 Lip13b                                              
    3.346   5%   2.101 Lip09                                               
    0.000 999%   0.000 MM09                                                
    5.896  11%   3.702 Lip20                                               
    1.454  79%   0.913 MM20                                                
 1.46E-02 999% 9.2E-03 MM12                                                
    0.000 999%   0.000 MM14                                                
    0.000 999%   0.000 MM17                                                
   6 lines in following misc. output table
  FWHM = 0.054 ppm    S/N =  48                                            
  Data shift =-0.004 ppm                                                   
  Ph:  -8 deg      -1.7 deg/ppm                                            
  alphaB,S = 3.1E-02,   4.0E-01                                            
   26 spline knots.   Ns = 7(2)                                            
   3 inflections.     1 extrema                                            
  917 points on ppm-axis = NY
      4.000000     3.996178     3.992356     3.988534     3.984712     3.980890     3.977067     3.973245     3.969423     3.965601
      3.961779     3.957957     3.954135     3.950313     3.946491     3.942669     3.938847     3.935024     3.931202     3.927380
      3.923558     3.919736     3.915914     3.912092     3.908270     3.904448     3.900626     3.896804     3.892982     3.889159
      3.885337     3.881515     3.877693     3.873871     3.870049     3.866227     3.862405     3.858583     3.854761     3.850939
      3.847116     3.843294     3.839472     3.835650     3.831828     3.828006     3.824184     3.820362     3.816540     3.812718
      3.808896     3.805073     3.801251     3.797429     3.793607     3.789785     3.785963     3.782141     3.778319     3.774497
      3.770675     3.766853     3.763031     3.759208     3.755386     3.751564     3.747742     3.743920     3.740098     3.736276
      3.732454     3.728632     3.724810     3.720988     3.717165     3.713343     3.709521     3.705699     3.701877     3.698055
      3.694233     3.690411     3.686589     3.682767     3.678945     3.675122     3.671300     3.667478     3.663656     3.659834
      3.656012     3.652190     3.648368     3.644546     3.640724     3.636902     3.633080     3.629257     3.625435     3.621613
      3.617791     3.613969     3.610147     3.606325     3.602503     3.598681     3.594859     3.591037     3.587214     3.583392
      3.579570     3.575748     3.571926     3.568104     3.564282     3.560460     3.556638     3.552816     3.548994     3.545171
      3.541349     3.537527     3.533705     3.529883     3.526061     3.522239     3.518417     3.514595     3.510773     3.506951
      3.503129     3.499306     3.495484     3.491662     3.487840     3.484018     3.480196     3.476374     3.472552     3.468730
      3.464908     3.461086     3.457263     3.453441     3.449619     3.445797     3.441975     3.438153     3.434331     3.430509
      3.426687     3.422865     3.419043     3.415220     3.411398     3.407576     3.403754     3.399932     3.396110     3.392288
      3.388466     3.384644     3.380822     3.377000     3.373178     3.369355     3.365533     3.361711     3.357889     3.354067
      3.350245     3.346423     3.342601     3.338779     3.334957     3.331135     3.327312     3.323490     3.319668     3.315846
      3.312024     3.308202     3.304380     3.300558     3.296736     3.292914     3.289092     3.285269     3.281447     3.277625
      3.273803     3.269981     3.266159     3.262337     3.258515     3.254693     3.250871     3.247049     3.243227     3.239404
      3.235582     3.231760     3.227938     3.224116     3.220294     3.216472     3.212650     3.208828     3.205006     3.201184
      3.197361     3.193539     3.189717     3.185895     3.182073     3.178251     3.174429     3.170607     3.166785     3.162963
      3.159141     3.155318     3.151496     3.147674     3.143852     3.140030     3.136208     3.132386     3.128564     3.124742
      3.120920     3.117098     3.113276     3.109453     3.105631     3.101809     3.097987     3.094165     3.090343     3.086521
      3.082699     3.078877     3.075055     3.071233     3.067410     3.063588     3.059766     3.055944     3.052122     3.048300
      3.044478     3.040656     3.036834     3.033012     3.029190     3.025367     3.021545     3.017723     3.013901     3.010079
      3.006257     3.002435     2.998613     2.994791     2.990969     2.987147     2.983325     2.979502     2.975680     2.971858
      2.968036     2.964214     2.960392     2.956570     2.952748     2.948926     2.945104     2.941282     2.937459     2.933637
      2.929815     2.925993     2.922171     2.918349     2.914527     2.910705     2.906883     2.903061     2.899239     2.895416
      2.891594     2.887772     2.883950     2.880128     2.876306     2.872484     2.868662     2.864840     2.861018     2.857196
      2.853374     2.849551     2.845729     2.841907     2.838085     2.834263     2.830441     2.826619     2.822797     2.818975
      2.815153     2.811331     2.807508     2.803686     2.799864     2.796042     2.792220     2.788398     2.784576     2.780754
      2.776932     2.773110     2.769288     2.765465     2.761643     2.757821     2.753999     2.750177     2.746355     2.742533
      2.738711     2.734889     2.731067     2.727245     2.723423     2.719600     2.715778     2.711956     2.708134     2.704312
      2.700490     2.696668     2.692846     2.689024     2.685202     2.681380     2.677557     2.673735     2.669913     2.666091
      2.662269     2.658447     2.654625     2.650803     2.646981     2.643159     2.639337     2.635514     2.631692     2.627870
      2.624048     2.620226     2.616404     2.612582     2.608760     2.604938     2.601116     2.597294     2.593472     2.589649
      2.585827     2.582005     2.578183     2.574361     2.570539     2.566717     2.562895     2.559073     2.555251     2.551429
      2.547606     2.543784     2.539962     2.536140     2.532318     2.528496     2.524674     2.520852     2.517030     2.513208
      2.509386     2.505563     2.501741     2.497919     2.494097     2.490275     2.486453     2.482631     2.478809     2.474987
      2.471165     2.467343     2.463521     2.459698     2.455876     2.452054     2.448232     2.444410     2.440588     2.436766
      2.432944     2.429122     2.425300     2.421478     2.417655     2.413833     2.410011     2.406189     2.402367     2.398545
      2.394723     2.390901     2.387079     2.383257     2.379435     2.375612     2.371790     2.367968     2.364146     2.360324
      2.356502     2.352680     2.348858     2.345036     2.341214     2.337392     2.333570     2.329747     2.325925     2.322103
      2.318281     2.314459     2.310637     2.306815     2.302993     2.299171     2.295349     2.291527     2.287704     2.283882
      2.280060     2.276238     2.272416     2.268594     2.264772     2.260950     2.257128     2.253306     2.249484     2.245661
      2.241839     2.238017     2.234195     2.230373     2.226551     2.222729     2.218907     2.215085     2.211263     2.207441
      2.203619     2.199796     2.195974     2.192152     2.188330     2.184508     2.180686     2.176864     2.173042     2.169220
      2.165398     2.161576     2.157753     2.153931     2.150109     2.146287     2.142465     2.138643     2.134821     2.130999
      2.127177     2.123355     2.119533     2.115710     2.111888     2.108066     2.104244     2.100422     2.096600     2.092778
      2.088956     2.085134     2.081312     2.077490     2.073668     2.069845     2.066023     2.062201     2.058379     2.054557
      2.050735     2.046913     2.043091     2.039269     2.035447     2.031625     2.027802     2.023980     2.020158     2.016336
      2.012514     2.008692     2.004870     2.001048     1.997226     1.993404     1.989582     1.985759     1.981937     1.978115
      1.974293     1.970471     1.966649     1.962827     1.959005     1.955183     1.951361     1.947539     1.943717     1.939894
      1.936072     1.932250     1.928428     1.924606     1.920784     1.916962     1.913140     1.909318     1.905496     1.901674
      1.897851     1.894029     1.890207     1.886385     1.882563     1.878741     1.874919     1.871097     1.867275     1.863453
      1.859631     1.855808     1.851986     1.848164     1.844342     1.840520     1.836698     1.832876     1.829054     1.825232
      1.821410     1.817588     1.813766     1.809943     1.806121     1.802299     1.798477     1.794655     1.790833     1.787011
      1.783189     1.779367     1.775545     1.771723     1.767900     1.764078     1.760256     1.756434     1.752612     1.748790
      1.744968     1.741146     1.737324     1.733502     1.729680     1.725857     1.722035     1.718213     1.714391     1.710569
      1.706747     1.702925     1.699103     1.695281     1.691459     1.687637     1.683815     1.679992     1.676170     1.672348
      1.668526     1.664704     1.660882     1.657060     1.653238     1.649416     1.645594     1.641772     1.637949     1.634127
      1.630305     1.626483     1.622661     1.618839     1.615017     1.611195     1.607373     1.603551     1.599729     1.595906
      1.592084     1.588262     1.584440     1.580618     1.576796     1.572974     1.569152     1.565330     1.561508     1.557686
      1.553864     1.550041     1.546219     1.542397     1.538575     1.534753     1.530931     1.527109     1.523287     1.519465
      1.515643     1.511821     1.507998     1.504176     1.500354     1.496532     1.492710     1.488888     1.485066     1.481244
      1.477422     1.473600     1.469778     1.465955     1.462133     1.458311     1.454489     1.450667     1.446845     1.443023
      1.439201     1.435379     1.431557     1.427735     1.423913     1.420090     1.416268     1.412446     1.408624     1.404802
      1.400980     1.397158     1.393336     1.389514     1.385692     1.381870     1.378047     1.374225     1.370403     1.366581
      1.362759     1.358937     1.355115     1.351293     1.347471     1.343649     1.339827     1.336004     1.332182     1.328360
      1.324538     1.320716     1.316894     1.313072     1.309250     1.305428     1.301606     1.297784     1.293962     1.290139
      1.286317     1.282495     1.278673     1.274851     1.271029     1.267207     1.263385     1.259563     1.255741     1.251919
      1.248096     1.244274     1.240452     1.236630     1.232808     1.228986     1.225164     1.221342     1.217520     1.213698
      1.209876     1.206053     1.202231     1.198409     1.194587     1.190765     1.186943     1.183121     1.179299     1.175477
      1.171655     1.167833     1.164011     1.160188     1.156366     1.152544     1.148722     1.144900     1.141078     1.137256
      1.133434     1.129612     1.125790     1.121968     1.118145     1.114323     1.110501     1.106679     1.102857     1.099035
      1.095213     1.091391     1.087569     1.083747     1.079925     1.076102     1.072280     1.068458     1.064636     1.060814
      1.056992     1.053170     1.049348     1.045526     1.041704     1.037882     1.034060     1.030237     1.026415     1.022593
      1.018771     1.014949     1.011127     1.007305     1.003483     0.999661     0.995839     0.992016     0.988194     0.984372
      0.980550     0.976728     0.972906     0.969083     0.965261     0.961439     0.957617     0.953795     0.949973     0.946151
      0.942328     0.938506     0.934684     0.930862     0.927040     0.923218     0.919396     0.915573     0.911751     0.907929
      0.904107     0.900285     0.896463     0.892641     0.888818     0.884996     0.881174     0.877352     0.873530     0.869708
      0.865885     0.862063     0.858241     0.854419     0.850597     0.846775     0.842953     0.839130     0.835308     0.831486
      0.827664     0.823842     0.820020     0.816198     0.812375     0.808553     0.804731     0.800909     0.797087     0.793265
      0.789443     0.785620     0.781798     0.777976     0.774154     0.770332     0.766510     0.762688     0.758865     0.755043
      0.751221     0.747399     0.743577     0.739755     0.735932     0.732110     0.728288     0.724466     0.720644     0.716822
      0.713000     0.709177     0.705355     0.701533     0.697711     0.693889     0.690067     0.686245     0.682422     0.678600
      0.674778     0.670956     0.667134     0.663312     0.659490     0.655667     0.651845     0.648023     0.644201     0.640379
      0.636557     0.632734     0.628912     0.625090     0.621268     0.617446     0.613624     0.609802     0.605979     0.602157
      0.598335     0.594513     0.590691     0.586869     0.583047     0.579224     0.575402     0.571580     0.567758     0.563936
      0.560114     0.556292     0.552469     0.548647     0.544825     0.541003     0.537181     0.533359     0.529536     0.525714
      0.521892     0.518070     0.514248     0.510426     0.506604     0.502781     0.498959
 NY phased data points follow
   3.91462E-01  4.08328E-01  3.91675E-01  4.22641E-01  4.38112E-01  4.40974E-01  4.28524E-01  4.14501E-01  4.51670E-01  4.02473E-01
   4.25333E-01  4.50800E-01  4.60601E-01  4.78570E-01  4.97862E-01  5.36373E-01  5.61728E-01  6.08785E-01  6.65907E-01  7.33662E-01
   7.86749E-01  8.40957E-01  9.08418E-01  9.82886E-01  1.06461E+00  1.13475E+00  1.22125E+00  1.24571E+00  1.24656E+00  1.31409E+00
   1.29708E+00  1.30645E+00  1.29328E+00  1.23331E+00  1.20710E+00  1.13369E+00  1.11011E+00  1.06369E+00  9.78311E-01  9.30420E-01
   8.75262E-01  8.23474E-01  7.64159E-01  7.43295E-01  7.03029E-01  6.67812E-01  6.36414E-01  6.30406E-01  6.06539E-01  5.82013E-01
   5.76034E-01  5.87494E-01  5.82471E-01  5.46018E-01  5.60245E-01  5.87602E-01  5.93756E-01  6.13333E-01  5.93430E-01  6.10076E-01
   6.10859E-01  6.57847E-01  6.52159E-01  6.78366E-01  6.98970E-01  7.15424E-01  7.24774E-01  7.52763E-01  7.79283E-01  7.73741E-01
   7.84430E-01  8.36415E-01  8.16557E-01  8.26578E-01  7.79169E-01  8.19824E-01  7.64967E-01  7.58849E-01  7.37304E-01  7.40159E-01
   7.60533E-01  7.00846E-01  7.30066E-01  6.63432E-01  6.94931E-01  6.68015E-01  6.39422E-01  6.89884E-01  6.71426E-01  6.43086E-01
   6.33236E-01  6.16719E-01  5.99306E-01  5.93513E-01  5.92198E-01  6.09538E-01  6.56479E-01  6.33085E-01  6.86939E-01  7.15654E-01
   6.84265E-01  6.89284E-01  6.96521E-01  6.98433E-01  7.17690E-01  6.88481E-01  6.69878E-01  6.42966E-01  6.34291E-01  5.66534E-01
   5.57627E-01  5.13173E-01  4.95456E-01  4.94695E-01  4.84470E-01  5.01522E-01  5.36544E-01  5.56397E-01  5.97070E-01  6.43642E-01
   7.20981E-01  7.19681E-01  7.71420E-01  7.87460E-01  8.21015E-01  8.30479E-01  8.34023E-01  8.14518E-01  8.31207E-01  7.95623E-01
   7.50997E-01  7.01806E-01  6.22611E-01  5.95259E-01  5.35959E-01  5.22274E-01  4.81420E-01  4.79754E-01  4.19315E-01  4.46164E-01
   4.21183E-01  3.81850E-01  3.80398E-01  3.45115E-01  4.15901E-01  3.98474E-01  3.81881E-01  3.83366E-01  3.77359E-01  3.78501E-01
   3.92152E-01  3.75949E-01  3.70095E-01  3.81927E-01  3.84748E-01  3.54074E-01  3.40653E-01  3.61911E-01  3.60581E-01  3.32001E-01
   3.29333E-01  3.36469E-01  3.02066E-01  3.24665E-01  3.02304E-01  2.82904E-01  2.76381E-01  3.08031E-01  2.74485E-01  3.22565E-01
   3.12684E-01  3.30622E-01  3.71479E-01  3.69146E-01  3.73053E-01  4.29969E-01  3.90157E-01  4.17693E-01  4.08700E-01  3.98953E-01
   4.05767E-01  4.12600E-01  3.96566E-01  3.79400E-01  3.37369E-01  3.56985E-01  3.37841E-01  3.20646E-01  3.38239E-01  3.40628E-01
   3.28346E-01  3.47899E-01  3.52399E-01  3.73043E-01  4.24411E-01  4.35175E-01  4.33819E-01  4.55469E-01  5.05650E-01  5.17318E-01
   5.16214E-01  5.52031E-01  5.30028E-01  5.94972E-01  6.11638E-01  6.30444E-01  6.69843E-01  7.39725E-01  8.16591E-01  8.88547E-01
   9.45214E-01  1.02009E+00  1.06361E+00  1.09471E+00  1.12812E+00  1.14337E+00  1.17453E+00  1.16173E+00  1.08407E+00  1.03832E+00
   1.01603E+00  9.35551E-01  8.44540E-01  7.61265E-01  6.84039E-01  6.19910E-01  5.37679E-01  5.56757E-01  4.82988E-01  4.58892E-01
   4.41750E-01  4.02642E-01  3.76869E-01  3.45249E-01  3.46060E-01  3.53275E-01  3.30584E-01  3.38428E-01  3.56646E-01  3.10235E-01
   3.49157E-01  3.24744E-01  3.29326E-01  3.63657E-01  3.60898E-01  3.59311E-01  3.66078E-01  3.53001E-01  3.74871E-01  4.25588E-01
   4.13483E-01  4.69126E-01  5.08258E-01  5.99922E-01  7.21279E-01  8.20485E-01  9.84900E-01  1.11598E+00  1.24367E+00  1.36223E+00
   1.44184E+00  1.54519E+00  1.58956E+00  1.59708E+00  1.60128E+00  1.60193E+00  1.51416E+00  1.45420E+00  1.36067E+00  1.23851E+00
   1.12734E+00  1.00976E+00  9.38698E-01  8.26212E-01  7.58887E-01  6.50191E-01  6.05486E-01  5.34265E-01  4.95916E-01  4.80425E-01
   4.22995E-01  3.83628E-01  3.90438E-01  3.93734E-01  3.77991E-01  3.31679E-01  3.63266E-01  3.41099E-01  2.93754E-01  2.87277E-01
   2.94081E-01  2.62032E-01  2.74100E-01  2.88831E-01  2.67500E-01  2.68666E-01  2.68638E-01  2.65104E-01  2.55136E-01  2.44639E-01
   2.45006E-01  2.31672E-01  2.15970E-01  2.04996E-01  1.98664E-01  2.15628E-01  1.83410E-01  2.01790E-01  1.86577E-01  2.00316E-01
   1.55277E-01  1.63459E-01  1.84985E-01  1.87673E-01  1.90181E-01  1.81308E-01  2.09804E-01  1.98779E-01  1.94306E-01  2.05812E-01
   2.02602E-01  2.07573E-01  2.50792E-01  2.33159E-01  2.80768E-01  2.51204E-01  2.71498E-01  2.69149E-01  2.81395E-01  2.75703E-01
   2.99719E-01  2.82786E-01  2.84842E-01  2.69117E-01  2.65001E-01  3.03579E-01  2.88284E-01  2.98115E-01  2.63562E-01  2.60669E-01
   2.67709E-01  2.45589E-01  2.37197E-01  2.17908E-01  1.83472E-01  1.79550E-01  2.11447E-01  1.89706E-01  1.65107E-01  1.35562E-01
   1.31385E-01  1.49903E-01  1.55179E-01  1.48203E-01  1.73287E-01  1.92382E-01  2.11342E-01  2.26500E-01  2.29043E-01  2.57392E-01
   2.55545E-01  2.63415E-01  2.82720E-01  2.97543E-01  2.76636E-01  3.25957E-01  3.28277E-01  3.65303E-01  3.68070E-01  3.53863E-01
   3.88601E-01  3.71224E-01  4.10611E-01  4.03508E-01  4.60672E-01  4.20451E-01  4.32153E-01  4.03051E-01  4.26025E-01  4.08180E-01
   3.66681E-01  3.57397E-01  3.60590E-01  3.48099E-01  3.40122E-01  3.23237E-01  3.20637E-01  2.96269E-01  2.93963E-01  3.11029E-01
   2.93827E-01  2.78570E-01  3.01091E-01  3.08532E-01  2.85649E-01  2.90956E-01  2.92421E-01  3.07484E-01  3.58028E-01  3.61316E-01
   3.49540E-01  3.68699E-01  3.73630E-01  4.12525E-01  4.11525E-01  4.27636E-01  4.42001E-01  4.69243E-01  5.05329E-01  4.85542E-01
   5.31536E-01  5.31646E-01  5.31468E-01  5.66177E-01  5.36650E-01  5.65769E-01  5.73359E-01  5.78091E-01  5.95771E-01  5.28925E-01
   5.52983E-01  5.42252E-01  5.28844E-01  5.12551E-01  4.89484E-01  4.77030E-01  4.81634E-01  4.59011E-01  4.89570E-01  4.91999E-01
   5.37743E-01  5.54271E-01  6.03229E-01  6.54035E-01  6.57624E-01  7.19011E-01  7.54159E-01  7.67825E-01  8.05180E-01  7.89251E-01
   7.79734E-01  7.79676E-01  7.29949E-01  7.26791E-01  7.05679E-01  6.38786E-01  6.43723E-01  6.29514E-01  5.79504E-01  5.96396E-01
   5.79837E-01  5.85006E-01  5.99105E-01  6.08537E-01  6.26149E-01  6.29559E-01  6.66511E-01  6.52516E-01  6.78864E-01  6.60562E-01
   6.82198E-01  6.38268E-01  6.43719E-01  6.20562E-01  6.22318E-01  6.42543E-01  5.90678E-01  5.76989E-01  5.77906E-01  5.50222E-01
   5.28052E-01  5.85063E-01  4.86048E-01  5.22918E-01  5.25820E-01  5.24584E-01  5.31111E-01  5.43214E-01  5.09078E-01  5.37747E-01
   5.15776E-01  5.33658E-01  5.16434E-01  5.44240E-01  5.86945E-01  5.03780E-01  5.45198E-01  5.38515E-01  5.31629E-01  5.17332E-01
   5.48786E-01  5.29752E-01  5.53033E-01  5.42366E-01  5.97478E-01  5.58004E-01  6.11015E-01  6.39591E-01  6.34610E-01  6.64372E-01
   6.77595E-01  6.92669E-01  7.09988E-01  7.15893E-01  7.41170E-01  7.73660E-01  7.60788E-01  7.68026E-01  7.79203E-01  7.77990E-01
   8.06324E-01  8.12009E-01  8.45230E-01  8.82961E-01  8.75668E-01  9.32000E-01  9.96045E-01  1.00913E+00  1.08969E+00  1.15745E+00
   1.29659E+00  1.39655E+00  1.60796E+00  1.76704E+00  1.91822E+00  2.04309E+00  2.14393E+00  2.19778E+00  2.19923E+00  2.19465E+00
   2.20759E+00  2.12043E+00  2.03558E+00  1.89109E+00  1.77359E+00  1.62599E+00  1.45197E+00  1.26822E+00  1.15407E+00  1.00910E+00
   9.11341E-01  8.29545E-01  7.59448E-01  6.87374E-01  6.11934E-01  5.83381E-01  5.42579E-01  4.80214E-01  4.59294E-01  4.23826E-01
   3.83096E-01  4.00014E-01  3.96114E-01  3.13990E-01  3.48426E-01  3.46476E-01  3.20343E-01  3.10341E-01  3.21960E-01  2.96868E-01
   3.01471E-01  2.93395E-01  2.85188E-01  2.84482E-01  2.89829E-01  2.66786E-01  2.85571E-01  2.63266E-01  2.62016E-01  2.66416E-01
   2.48515E-01  2.52906E-01  2.62812E-01  2.51068E-01  2.61526E-01  2.44603E-01  2.50729E-01  2.28900E-01  2.38143E-01  2.10840E-01
   2.38068E-01  2.17439E-01  2.39827E-01  2.19406E-01  2.27803E-01  2.11014E-01  2.08030E-01  2.21560E-01  2.19204E-01  2.16920E-01
   2.06929E-01  2.15999E-01  2.06190E-01  1.88968E-01  1.94901E-01  1.95932E-01  1.83869E-01  2.02465E-01  2.17893E-01  2.05434E-01
   2.26345E-01  1.83357E-01  1.80169E-01  2.11603E-01  1.95679E-01  2.21925E-01  1.60906E-01  2.07828E-01  1.84462E-01  1.88425E-01
   2.01554E-01  2.44576E-01  2.02530E-01  1.71864E-01  2.29153E-01  1.89482E-01  2.08287E-01  2.25604E-01  2.15244E-01  1.91666E-01
   2.12936E-01  1.82802E-01  2.00247E-01  2.07867E-01  2.30300E-01  2.04751E-01  2.21241E-01  2.16463E-01  1.92496E-01  2.06087E-01
   2.32212E-01  2.16597E-01  2.13440E-01  2.21215E-01  1.92843E-01  2.18015E-01  2.21368E-01  2.25011E-01  2.15270E-01  2.19856E-01
   1.67711E-01  2.22679E-01  2.07845E-01  2.27245E-01  2.00608E-01  2.17084E-01  2.00543E-01  1.97605E-01  2.16968E-01  2.03808E-01
   2.23582E-01  2.57695E-01  2.07875E-01  2.19452E-01  2.15344E-01  2.24317E-01  1.86834E-01  2.07723E-01  2.02537E-01  1.88494E-01
   2.20062E-01  1.90471E-01  2.13296E-01  2.15455E-01  1.82826E-01  1.80133E-01  1.77426E-01  1.81926E-01  1.66035E-01  1.98873E-01
   1.84375E-01  1.50168E-01  1.71599E-01  2.22361E-01  2.10878E-01  2.08610E-01  2.08508E-01  2.18450E-01  2.17089E-01  2.31550E-01
   2.26623E-01  2.28111E-01  2.31505E-01  2.27218E-01  2.27871E-01  2.10227E-01  2.35431E-01  2.09621E-01  2.38715E-01  2.20573E-01
   2.12012E-01  2.40601E-01  2.41221E-01  2.42708E-01  2.35591E-01  2.51941E-01  2.87468E-01  2.57442E-01  2.31908E-01  2.70673E-01
   2.74198E-01  2.51905E-01  2.38872E-01  2.37352E-01  2.35344E-01  2.06965E-01  2.01286E-01  1.97137E-01  1.77146E-01  1.94843E-01
   1.85861E-01  1.84010E-01  2.13611E-01  1.93169E-01  1.91703E-01  1.70730E-01  1.95251E-01  1.64878E-01  1.72133E-01  1.41345E-01
   1.70801E-01  1.56265E-01  1.59009E-01  1.56080E-01  1.60340E-01  1.63547E-01  1.13383E-01  1.37807E-01  1.04442E-01  1.06534E-01
   1.29606E-01  1.19905E-01  1.04396E-01  1.02406E-01  9.92902E-02  7.79090E-02  1.06073E-01  1.10654E-01  9.24127E-02  7.40101E-02
   9.58648E-02  9.46895E-02  9.39316E-02  8.40374E-02  4.09202E-02  5.15707E-02  4.31077E-02  3.38534E-02  2.61238E-02  2.82634E-02
   3.49480E-02  1.67059E-02  2.23431E-02  1.54820E-02  3.60520E-02 -2.04301E-02 -9.96158E-03 -1.60656E-02 -7.47086E-03  4.05923E-03
  -4.82404E-02 -2.31744E-02 -4.89162E-02 -3.83751E-02 -4.32112E-02 -4.80767E-02 -5.98558E-02 -7.24432E-02 -5.56868E-02 -9.61890E-02
  -8.43239E-02 -8.45448E-02 -1.12333E-01 -8.24991E-02 -8.73421E-02 -7.34954E-02 -7.78368E-02 -7.38448E-02 -7.87470E-02 -7.40654E-02
  -8.60237E-02 -5.88297E-02 -7.87286E-02 -8.93911E-02 -7.88735E-02 -5.27391E-02 -8.43145E-02 -5.90454E-02 -6.96305E-02 -7.60836E-02
  -6.88163E-02 -5.62855E-02 -3.28706E-02 -4.11899E-02 -1.81791E-02 -4.17722E-02 -5.52133E-02 -1.96641E-02 -5.64354E-03 -2.54050E-02
  -1.05938E-02 -3.32734E-03 -1.86540E-02  1.60110E-03  9.90238E-03  2.45098E-02  8.17586E-03  7.28554E-02  3.62527E-02  5.49754E-02
   7.88368E-02  5.77634E-02  4.86319E-02  4.71810E-02  9.33295E-02  8.22591E-02  8.59754E-02  6.58205E-02  6.71499E-02  9.37049E-02
   7.65929E-02  8.70117E-02  7.84881E-02  6.75936E-02  9.45924E-02  9.20401E-02  7.69359E-02  5.17032E-02  3.06917E-02  5.69827E-02
   3.27419E-02  1.81181E-02  6.78066E-02  4.30368E-02 -8.92462E-03  1.77351E-02 -2.01180E-02 -3.67647E-02 -2.64144E-02 -2.97227E-02
  -1.44679E-02 -3.64001E-03 -2.30424E-02 -3.63138E-03 -9.48100E-03 -3.11242E-02  9.97392E-03 -1.26175E-02  5.95112E-04 -5.02579E-02
  -6.27890E-03  1.65118E-02 -5.24767E-03 -9.99880E-03 -5.09515E-03 -3.94135E-03  9.67885E-03 -2.17493E-02  5.57555E-03  3.73906E-03
   1.43738E-02 -1.76423E-02  1.84858E-02  4.02119E-03  1.59645E-02  2.29173E-02  1.18049E-02  1.48853E-02  1.92450E-02  1.97051E-02
   1.33434E-02  1.09861E-02  4.22036E-02  2.22696E-02  2.57363E-02  1.07437E-02  1.90918E-02 -6.14165E-03 -9.68218E-03 -8.57553E-03
  -9.29209E-03  7.27499E-03 -1.15330E-02  9.72663E-03 -1.22356E-02  1.28368E-02 -3.19725E-03 -8.46113E-04 -3.11067E-04 -1.67024E-02
  -2.37213E-02  4.07600E-03  3.98725E-04 -1.09916E-02  7.44523E-03 -2.24643E-02 -3.71082E-02 -1.77272E-02 -5.67701E-03 -1.78337E-02
   7.14140E-03 -8.99562E-03 -1.47186E-02 -3.27344E-02  4.70852E-03 -3.65826E-02 -2.14827E-02 -8.87780E-03 -6.06693E-02 -2.93732E-02
  -4.84793E-02 -1.32279E-02 -1.75864E-02 -3.80439E-02 -3.67835E-02 -4.45915E-02  1.23564E-02
 NY points of the fit to the data follow
   4.45771E-01  4.38353E-01  4.32062E-01  4.27566E-01  4.23041E-01  4.18205E-01  4.14332E-01  4.13260E-01  4.14813E-01  4.18378E-01
   4.24811E-01  4.35912E-01  4.50913E-01  4.67501E-01  4.87509E-01  5.15604E-01  5.54410E-01  6.05165E-01  6.66451E-01  7.33861E-01
   8.02659E-01  8.69072E-01  9.34025E-01  9.96823E-01  1.05975E+00  1.12277E+00  1.18463E+00  1.23969E+00  1.28103E+00  1.30188E+00
   1.30657E+00  1.30238E+00  1.28766E+00  1.25518E+00  1.21121E+00  1.16653E+00  1.11847E+00  1.06144E+00  1.00057E+00  9.41662E-01
   8.81161E-01  8.18236E-01  7.60966E-01  7.13602E-01  6.73560E-01  6.41047E-01  6.18097E-01  6.01815E-01  5.87275E-01  5.74215E-01
   5.65462E-01  5.61964E-01  5.62921E-01  5.67558E-01  5.75106E-01  5.83694E-01  5.91519E-01  5.97861E-01  6.04255E-01  6.13316E-01
   6.26291E-01  6.42480E-01  6.61408E-01  6.82084E-01  7.02897E-01  7.22386E-01  7.40953E-01  7.60461E-01  7.79336E-01  7.94767E-01
   8.05615E-01  8.11931E-01  8.13110E-01  8.10645E-01  8.05795E-01  7.97219E-01  7.83540E-01  7.68931E-01  7.56984E-01  7.45285E-01
   7.31184E-01  7.18574E-01  7.09745E-01  7.00656E-01  6.87477E-01  6.73450E-01  6.61225E-01  6.50138E-01  6.38838E-01  6.27718E-01
   6.16525E-01  6.05663E-01  5.98197E-01  5.97250E-01  6.03214E-01  6.15766E-01  6.34674E-01  6.57550E-01  6.79619E-01  6.97315E-01
   7.09584E-01  7.16417E-01  7.16945E-01  7.11350E-01  6.99635E-01  6.82400E-01  6.59866E-01  6.33217E-01  6.02210E-01  5.68202E-01
   5.34517E-01  5.06031E-01  4.86253E-01  4.79289E-01  4.87058E-01  5.08250E-01  5.38467E-01  5.73677E-01  6.11188E-01  6.49038E-01
   6.85070E-01  7.20142E-01  7.53789E-01  7.83773E-01  8.04638E-01  8.13879E-01  8.14051E-01  8.06445E-01  7.86866E-01  7.54984E-01
   7.18640E-01  6.83475E-01  6.47055E-01  6.08128E-01  5.72862E-01  5.44871E-01  5.20373E-01  4.94924E-01  4.71395E-01  4.54166E-01
   4.42142E-01  4.32993E-01  4.26670E-01  4.23869E-01  4.22540E-01  4.19579E-01  4.14725E-01  4.09368E-01  4.03100E-01  3.95338E-01
   3.87093E-01  3.79636E-01  3.72168E-01  3.63541E-01  3.54565E-01  3.46397E-01  3.38381E-01  3.29339E-01  3.20206E-01  3.12715E-01
   3.07068E-01  3.02407E-01  2.98869E-01  2.97199E-01  2.97506E-01  2.98632E-01  2.99637E-01  3.00767E-01  3.03865E-01  3.10182E-01
   3.20332E-01  3.34304E-01  3.51004E-01  3.68578E-01  3.85034E-01  3.98142E-01  4.07305E-01  4.12042E-01  4.13182E-01  4.11094E-01
