 LCModel (Version 6.3-0D) Copyright: S.W. Provencher.          Ref.: Magn. Reson. Med. 30:672-679 (1993).                
 S06_PRESS_35_act
 Data of: Dept of Radiology, The Johns Hopkins University School of Medicine
 24-February-2020  09:51
 32 lines in following concentration table = NCONC+1
    Conc.  %SD /Cr+PCr  Metabolite                                         
    0.237 125%   0.175 Asc                                                 
    4.342  12%   3.219 Asp                                                 
    6.238   5%   4.625 Cr                                                  
    0.716  36%   0.531 GABA                                                
    1.334  12%   0.989 GPC                                                 
    1.403   8%   1.041 GSH                                                 
    2.207  17%   1.637 Gln                                                 
   12.955   5%   9.605 Glu                                                 
    8.342   4%   6.185 Ins                                                 
    0.818  25%   0.606 Lac                                                 
   12.658   2%   9.385 NAA                                                 
    1.231  11%   0.913 NAAG                                                
    0.778  21%   0.577 PCh                                                 
    4.552   6%   3.375 PCr                                                 
    4.310  13%   3.196 PE                                                  
    0.315  16%   0.234 Scyllo                                              
    1.452  27%   1.076 Tau                                                 
    0.000 999%   0.000 -CrCH2                                              
    2.112   2%   1.566 PCh+GPC                                             
   10.790   1%   8.000 Cr+PCr                                              
   13.889   2%  10.298 NAA+NAAG                                            
   15.162   5%  11.242 Glu+Gln                                             
   35.160  24%  26.069 Lip13a                                              
    0.000 999%   0.000 Lip13b                                              
   11.966  27%   8.872 Lip09                                               
   11.110  18%   8.237 MM09                                                
    7.139  12%   5.293 Lip20                                               
    8.244  31%   6.112 MM20                                                
   10.928   8%   8.103+MM12                                                
   12.045  32%   8.931 MM14                                                
    8.178  28%   6.063 MM17                                                
   6 lines in following misc. output table
  FWHM = 0.031 ppm    S/N =  52                                            
  Data shift = 0.004 ppm                                                   
  Ph:  -4 deg      -0.7 deg/ppm                                            
  alphaB,S = 2.6E-02,   4.7E+01                                            
   26 spline knots.   Ns = 8(1)                                            
  ( 4) 2 infls.   ( 1) 2 extrs.                                            
  917 points on ppm-axis = NY
      4.000000     3.996178     3.992356     3.988534     3.984712     3.980890     3.977067     3.973245     3.969423     3.965601
      3.961779     3.957957     3.954135     3.950313     3.946491     3.942669     3.938847     3.935024     3.931202     3.927380
      3.923558     3.919736     3.915914     3.912092     3.908270     3.904448     3.900626     3.896804     3.892982     3.889159
      3.885337     3.881515     3.877693     3.873871     3.870049     3.866227     3.862405     3.858583     3.854761     3.850939
      3.847116     3.843294     3.839472     3.835650     3.831828     3.828006     3.824184     3.820362     3.816540     3.812718
      3.808896     3.805073     3.801251     3.797429     3.793607     3.789785     3.785963     3.782141     3.778319     3.774497
      3.770675     3.766853     3.763031     3.759208     3.755386     3.751564     3.747742     3.743920     3.740098     3.736276
      3.732454     3.728632     3.724810     3.720988     3.717165     3.713343     3.709521     3.705699     3.701877     3.698055
      3.694233     3.690411     3.686589     3.682767     3.678945     3.675122     3.671300     3.667478     3.663656     3.659834
      3.656012     3.652190     3.648368     3.644546     3.640724     3.636902     3.633080     3.629257     3.625435     3.621613
      3.617791     3.613969     3.610147     3.606325     3.602503     3.598681     3.594859     3.591037     3.587214     3.583392
      3.579570     3.575748     3.571926     3.568104     3.564282     3.560460     3.556638     3.552816     3.548994     3.545171
      3.541349     3.537527     3.533705     3.529883     3.526061     3.522239     3.518417     3.514595     3.510773     3.506951
      3.503129     3.499306     3.495484     3.491662     3.487840     3.484018     3.480196     3.476374     3.472552     3.468730
      3.464908     3.461086     3.457263     3.453441     3.449619     3.445797     3.441975     3.438153     3.434331     3.430509
      3.426687     3.422865     3.419043     3.415220     3.411398     3.407576     3.403754     3.399932     3.396110     3.392288
      3.388466     3.384644     3.380822     3.377000     3.373178     3.369355     3.365533     3.361711     3.357889     3.354067
      3.350245     3.346423     3.342601     3.338779     3.334957     3.331135     3.327312     3.323490     3.319668     3.315846
      3.312024     3.308202     3.304380     3.300558     3.296736     3.292914     3.289092     3.285269     3.281447     3.277625
      3.273803     3.269981     3.266159     3.262337     3.258515     3.254693     3.250871     3.247049     3.243227     3.239404
      3.235582     3.231760     3.227938     3.224116     3.220294     3.216472     3.212650     3.208828     3.205006     3.201184
      3.197361     3.193539     3.189717     3.185895     3.182073     3.178251     3.174429     3.170607     3.166785     3.162963
      3.159141     3.155318     3.151496     3.147674     3.143852     3.140030     3.136208     3.132386     3.128564     3.124742
      3.120920     3.117098     3.113276     3.109453     3.105631     3.101809     3.097987     3.094165     3.090343     3.086521
      3.082699     3.078877     3.075055     3.071233     3.067410     3.063588     3.059766     3.055944     3.052122     3.048300
      3.044478     3.040656     3.036834     3.033012     3.029190     3.025367     3.021545     3.017723     3.013901     3.010079
      3.006257     3.002435     2.998613     2.994791     2.990969     2.987147     2.983325     2.979502     2.975680     2.971858
      2.968036     2.964214     2.960392     2.956570     2.952748     2.948926     2.945104     2.941282     2.937459     2.933637
      2.929815     2.925993     2.922171     2.918349     2.914527     2.910705     2.906883     2.903061     2.899239     2.895416
      2.891594     2.887772     2.883950     2.880128     2.876306     2.872484     2.868662     2.864840     2.861018     2.857196
      2.853374     2.849551     2.845729     2.841907     2.838085     2.834263     2.830441     2.826619     2.822797     2.818975
      2.815153     2.811331     2.807508     2.803686     2.799864     2.796042     2.792220     2.788398     2.784576     2.780754
      2.776932     2.773110     2.769288     2.765465     2.761643     2.757821     2.753999     2.750177     2.746355     2.742533
      2.738711     2.734889     2.731067     2.727245     2.723423     2.719600     2.715778     2.711956     2.708134     2.704312
      2.700490     2.696668     2.692846     2.689024     2.685202     2.681380     2.677557     2.673735     2.669913     2.666091
      2.662269     2.658447     2.654625     2.650803     2.646981     2.643159     2.639337     2.635514     2.631692     2.627870
      2.624048     2.620226     2.616404     2.612582     2.608760     2.604938     2.601116     2.597294     2.593472     2.589649
      2.585827     2.582005     2.578183     2.574361     2.570539     2.566717     2.562895     2.559073     2.555251     2.551429
      2.547606     2.543784     2.539962     2.536140     2.532318     2.528496     2.524674     2.520852     2.517030     2.513208
      2.509386     2.505563     2.501741     2.497919     2.494097     2.490275     2.486453     2.482631     2.478809     2.474987
      2.471165     2.467343     2.463521     2.459698     2.455876     2.452054     2.448232     2.444410     2.440588     2.436766
      2.432944     2.429122     2.425300     2.421478     2.417655     2.413833     2.410011     2.406189     2.402367     2.398545
      2.394723     2.390901     2.387079     2.383257     2.379435     2.375612     2.371790     2.367968     2.364146     2.360324
      2.356502     2.352680     2.348858     2.345036     2.341214     2.337392     2.333570     2.329747     2.325925     2.322103
      2.318281     2.314459     2.310637     2.306815     2.302993     2.299171     2.295349     2.291527     2.287704     2.283882
      2.280060     2.276238     2.272416     2.268594     2.264772     2.260950     2.257128     2.253306     2.249484     2.245661
      2.241839     2.238017     2.234195     2.230373     2.226551     2.222729     2.218907     2.215085     2.211263     2.207441
      2.203619     2.199796     2.195974     2.192152     2.188330     2.184508     2.180686     2.176864     2.173042     2.169220
      2.165398     2.161576     2.157753     2.153931     2.150109     2.146287     2.142465     2.138643     2.134821     2.130999
      2.127177     2.123355     2.119533     2.115710     2.111888     2.108066     2.104244     2.100422     2.096600     2.092778
      2.088956     2.085134     2.081312     2.077490     2.073668     2.069845     2.066023     2.062201     2.058379     2.054557
      2.050735     2.046913     2.043091     2.039269     2.035447     2.031625     2.027802     2.023980     2.020158     2.016336
      2.012514     2.008692     2.004870     2.001048     1.997226     1.993404     1.989582     1.985759     1.981937     1.978115
      1.974293     1.970471     1.966649     1.962827     1.959005     1.955183     1.951361     1.947539     1.943717     1.939894
      1.936072     1.932250     1.928428     1.924606     1.920784     1.916962     1.913140     1.909318     1.905496     1.901674
      1.897851     1.894029     1.890207     1.886385     1.882563     1.878741     1.874919     1.871097     1.867275     1.863453
      1.859631     1.855808     1.851986     1.848164     1.844342     1.840520     1.836698     1.832876     1.829054     1.825232
      1.821410     1.817588     1.813766     1.809943     1.806121     1.802299     1.798477     1.794655     1.790833     1.787011
      1.783189     1.779367     1.775545     1.771723     1.767900     1.764078     1.760256     1.756434     1.752612     1.748790
      1.744968     1.741146     1.737324     1.733502     1.729680     1.725857     1.722035     1.718213     1.714391     1.710569
      1.706747     1.702925     1.699103     1.695281     1.691459     1.687637     1.683815     1.679992     1.676170     1.672348
      1.668526     1.664704     1.660882     1.657060     1.653238     1.649416     1.645594     1.641772     1.637949     1.634127
      1.630305     1.626483     1.622661     1.618839     1.615017     1.611195     1.607373     1.603551     1.599729     1.595906
      1.592084     1.588262     1.584440     1.580618     1.576796     1.572974     1.569152     1.565330     1.561508     1.557686
      1.553864     1.550041     1.546219     1.542397     1.538575     1.534753     1.530931     1.527109     1.523287     1.519465
      1.515643     1.511821     1.507998     1.504176     1.500354     1.496532     1.492710     1.488888     1.485066     1.481244
      1.477422     1.473600     1.469778     1.465955     1.462133     1.458311     1.454489     1.450667     1.446845     1.443023
      1.439201     1.435379     1.431557     1.427735     1.423913     1.420090     1.416268     1.412446     1.408624     1.404802
      1.400980     1.397158     1.393336     1.389514     1.385692     1.381870     1.378047     1.374225     1.370403     1.366581
      1.362759     1.358937     1.355115     1.351293     1.347471     1.343649     1.339827     1.336004     1.332182     1.328360
      1.324538     1.320716     1.316894     1.313072     1.309250     1.305428     1.301606     1.297784     1.293962     1.290139
      1.286317     1.282495     1.278673     1.274851     1.271029     1.267207     1.263385     1.259563     1.255741     1.251919
      1.248096     1.244274     1.240452     1.236630     1.232808     1.228986     1.225164     1.221342     1.217520     1.213698
      1.209876     1.206053     1.202231     1.198409     1.194587     1.190765     1.186943     1.183121     1.179299     1.175477
      1.171655     1.167833     1.164011     1.160188     1.156366     1.152544     1.148722     1.144900     1.141078     1.137256
      1.133434     1.129612     1.125790     1.121968     1.118145     1.114323     1.110501     1.106679     1.102857     1.099035
      1.095213     1.091391     1.087569     1.083747     1.079925     1.076102     1.072280     1.068458     1.064636     1.060814
      1.056992     1.053170     1.049348     1.045526     1.041704     1.037882     1.034060     1.030237     1.026415     1.022593
      1.018771     1.014949     1.011127     1.007305     1.003483     0.999661     0.995839     0.992016     0.988194     0.984372
      0.980550     0.976728     0.972906     0.969083     0.965261     0.961439     0.957617     0.953795     0.949973     0.946151
      0.942328     0.938506     0.934684     0.930862     0.927040     0.923218     0.919396     0.915573     0.911751     0.907929
      0.904107     0.900285     0.896463     0.892641     0.888818     0.884996     0.881174     0.877352     0.873530     0.869708
      0.865885     0.862063     0.858241     0.854419     0.850597     0.846775     0.842953     0.839130     0.835308     0.831486
      0.827664     0.823842     0.820020     0.816198     0.812375     0.808553     0.804731     0.800909     0.797087     0.793265
      0.789443     0.785620     0.781798     0.777976     0.774154     0.770332     0.766510     0.762688     0.758865     0.755043
      0.751221     0.747399     0.743577     0.739755     0.735932     0.732110     0.728288     0.724466     0.720644     0.716822
      0.713000     0.709177     0.705355     0.701533     0.697711     0.693889     0.690067     0.686245     0.682422     0.678600
      0.674778     0.670956     0.667134     0.663312     0.659490     0.655667     0.651845     0.648023     0.644201     0.640379
      0.636557     0.632734     0.628912     0.625090     0.621268     0.617446     0.613624     0.609802     0.605979     0.602157
      0.598335     0.594513     0.590691     0.586869     0.583047     0.579224     0.575402     0.571580     0.567758     0.563936
      0.560114     0.556292     0.552469     0.548647     0.544825     0.541003     0.537181     0.533359     0.529536     0.525714
      0.521892     0.518070     0.514248     0.510426     0.506604     0.502781     0.498959
 NY phased data points follow
   3.05626E-01  3.22447E-01  3.10748E-01  3.42338E-01  3.47158E-01  3.16703E-01  3.51398E-01  3.01271E-01  3.56831E-01  3.69724E-01
   3.34493E-01  3.53020E-01  3.87660E-01  4.21006E-01  4.17600E-01  4.60967E-01  4.93268E-01  4.71967E-01  4.73290E-01  5.54276E-01
   6.32559E-01  6.80363E-01  7.49605E-01  8.38495E-01  9.11748E-01  1.00457E+00  1.09497E+00  1.17642E+00  1.23083E+00  1.25166E+00
   1.34935E+00  1.27312E+00  1.28334E+00  1.22689E+00  1.13683E+00  1.10791E+00  1.02318E+00  9.72223E-01  8.97163E-01  8.17951E-01
   7.88718E-01  7.22273E-01  6.59543E-01  6.12400E-01  5.89241E-01  5.85354E-01  5.71784E-01  5.51751E-01  5.56135E-01  5.20090E-01
   5.23542E-01  5.23798E-01  5.48332E-01  5.07733E-01  5.17536E-01  5.29492E-01  5.59699E-01  5.83797E-01  5.66366E-01  5.84896E-01
   6.01221E-01  6.51824E-01  6.01333E-01  6.27755E-01  6.14054E-01  6.43564E-01  6.64442E-01  6.78961E-01  7.39063E-01  7.58091E-01
   8.01577E-01  8.49581E-01  8.38139E-01  8.04915E-01  8.02666E-01  7.61003E-01  7.52421E-01  7.18350E-01  7.10201E-01  6.72998E-01
   6.69426E-01  7.01904E-01  6.96251E-01  6.75610E-01  6.93918E-01  7.16563E-01  7.25173E-01  7.05866E-01  6.96551E-01  6.30113E-01
   6.40725E-01  6.12161E-01  5.70615E-01  5.48251E-01  5.10149E-01  5.32438E-01  5.66878E-01  5.55772E-01  6.61116E-01  7.00620E-01
   7.81931E-01  8.36185E-01  8.22659E-01  8.37286E-01  8.18655E-01  7.73128E-01  7.47072E-01  7.08084E-01  6.65156E-01  6.09594E-01
   5.67564E-01  5.35932E-01  4.75335E-01  4.24935E-01  4.17453E-01  3.91181E-01  4.59119E-01  4.82871E-01  5.52485E-01  6.67428E-01
   7.01907E-01  8.04268E-01  8.34120E-01  8.98908E-01  9.08632E-01  9.32052E-01  9.38451E-01  9.46592E-01  9.39385E-01  8.43739E-01
   7.61429E-01  7.18886E-01  6.52190E-01  6.04181E-01  5.92640E-01  5.24175E-01  5.14072E-01  4.57564E-01  4.53983E-01  4.60558E-01
   4.26337E-01  4.17186E-01  4.39655E-01  4.09631E-01  4.36289E-01  4.12917E-01  4.29414E-01  4.14384E-01  4.34193E-01  4.41748E-01
   4.24935E-01  3.96302E-01  4.01909E-01  4.23448E-01  4.09066E-01  4.21522E-01  4.30410E-01  4.16112E-01  3.91841E-01  3.66694E-01
   3.39193E-01  3.58362E-01  4.10066E-01  3.60545E-01  3.28190E-01  3.12628E-01  3.04586E-01  3.42016E-01  3.45610E-01  3.16918E-01
   3.30487E-01  3.18594E-01  3.30265E-01  3.35941E-01  3.49556E-01  3.73675E-01  4.03587E-01  3.89490E-01  4.05864E-01  4.39833E-01
   3.94334E-01  3.59455E-01  3.52295E-01  3.48789E-01  3.27372E-01  2.91146E-01  2.95409E-01  2.71945E-01  3.02743E-01  3.21392E-01
   3.45182E-01  3.22883E-01  2.98997E-01  3.38750E-01  4.07551E-01  4.22547E-01  4.59166E-01  4.74130E-01  4.98977E-01  5.48344E-01
   5.56016E-01  5.66746E-01  5.86239E-01  5.41679E-01  5.39684E-01  5.07401E-01  4.93924E-01  5.29642E-01  5.44743E-01  6.63324E-01
   8.31291E-01  9.91762E-01  1.19776E+00  1.31624E+00  1.34262E+00  1.40301E+00  1.39958E+00  1.30761E+00  1.22676E+00  1.15330E+00
   1.02804E+00  9.18787E-01  8.47032E-01  7.87580E-01  6.73376E-01  6.14708E-01  5.63993E-01  4.99208E-01  4.98020E-01  4.54098E-01
   4.31807E-01  4.15553E-01  4.11641E-01  3.61272E-01  3.61290E-01  3.50005E-01  3.37344E-01  3.43531E-01  3.63466E-01  3.36090E-01
   3.38919E-01  3.44081E-01  3.69212E-01  3.38082E-01  3.63778E-01  3.58819E-01  3.62398E-01  4.14203E-01  4.07469E-01  4.30372E-01
   4.59384E-01  4.26703E-01  4.38169E-01  4.07746E-01  4.70012E-01  5.09100E-01  6.68887E-01  8.71939E-01  1.09792E+00  1.41675E+00
   1.63164E+00  1.73058E+00  1.82310E+00  1.84637E+00  1.79148E+00  1.68108E+00  1.58559E+00  1.42323E+00  1.32610E+00  1.15318E+00
   1.02531E+00  9.44823E-01  8.16377E-01  7.48324E-01  6.64409E-01  6.41884E-01  6.00420E-01  5.30786E-01  5.26524E-01  4.65628E-01
   4.58615E-01  4.35370E-01  3.60524E-01  3.98838E-01  3.73146E-01  4.09138E-01  3.95915E-01  3.46344E-01  3.67481E-01  3.68196E-01
   3.79817E-01  3.28406E-01  3.42879E-01  3.12149E-01  3.15128E-01  3.12134E-01  3.26699E-01  3.06447E-01  3.12235E-01  2.73807E-01
   2.85409E-01  2.90663E-01  2.81079E-01  2.32560E-01  2.59972E-01  2.77624E-01  2.79706E-01  3.05397E-01  2.36012E-01  2.22214E-01
   2.64490E-01  2.35171E-01  2.39624E-01  2.41043E-01  2.53978E-01  2.40558E-01  2.53465E-01  2.40287E-01  2.43701E-01  2.46665E-01
   2.46262E-01  2.37311E-01  2.67910E-01  2.54802E-01  2.96373E-01  3.62041E-01  3.63933E-01  3.95418E-01  3.77940E-01  3.48174E-01
   3.53022E-01  3.16713E-01  3.10455E-01  3.42503E-01  3.12712E-01  3.26653E-01  3.29361E-01  3.84935E-01  3.90084E-01  3.56288E-01
   3.63284E-01  2.99053E-01  3.02897E-01  2.71867E-01  2.79493E-01  2.43837E-01  2.47442E-01  2.23782E-01  2.14329E-01  2.16467E-01
   1.66962E-01  2.17401E-01  1.79038E-01  1.78794E-01  1.53113E-01  2.13933E-01  2.04833E-01  2.42960E-01  2.99981E-01  2.93981E-01
   3.35001E-01  3.49254E-01  3.58193E-01  3.42144E-01  3.23625E-01  3.24458E-01  3.30560E-01  3.58950E-01  3.72669E-01  4.28040E-01
   4.41725E-01  4.45897E-01  4.27542E-01  4.26532E-01  4.55076E-01  4.55738E-01  4.80276E-01  4.72179E-01  4.57871E-01  4.59366E-01
   4.55878E-01  4.41877E-01  4.32257E-01  4.07937E-01  3.99220E-01  3.37076E-01  3.68639E-01  3.16742E-01  3.06395E-01  3.45625E-01
   3.33449E-01  3.06446E-01  2.91525E-01  2.92015E-01  2.94129E-01  2.87618E-01  3.13314E-01  3.23161E-01  3.49489E-01  3.72031E-01
   3.85124E-01  3.72879E-01  4.25706E-01  4.39490E-01  4.57722E-01  4.40291E-01  4.56795E-01  4.40874E-01  4.26205E-01  4.96067E-01
   5.27983E-01  5.78570E-01  5.69049E-01  6.04016E-01  5.75114E-01  6.31885E-01  6.34478E-01  6.04530E-01  5.91901E-01  6.12590E-01
   5.94919E-01  5.71147E-01  5.49888E-01  5.43385E-01  5.08203E-01  4.75203E-01  4.47840E-01  4.10412E-01  4.05161E-01  3.60845E-01
   4.10393E-01  4.60945E-01  5.16501E-01  6.01638E-01  7.04842E-01  7.26551E-01  8.32104E-01  9.10057E-01  9.29023E-01  9.44257E-01
   9.05671E-01  8.81589E-01  8.24593E-01  7.43172E-01  6.58939E-01  6.23329E-01  5.13529E-01  5.31856E-01  4.67596E-01  4.97979E-01
   5.11288E-01  5.66568E-01  5.63772E-01  5.83925E-01  6.72884E-01  6.76141E-01  7.50612E-01  7.02234E-01  7.31279E-01  7.15186E-01
   6.93289E-01  6.96885E-01  6.62152E-01  6.40343E-01  5.96596E-01  6.21999E-01  5.94919E-01  5.91287E-01  5.76456E-01  5.85356E-01
   5.45823E-01  5.73254E-01  5.36328E-01  5.35244E-01  5.12889E-01  5.41709E-01  5.59883E-01  5.26295E-01  5.35724E-01  5.41039E-01
   5.59512E-01  5.67653E-01  6.10687E-01  5.70538E-01  5.85986E-01  5.70371E-01  5.90017E-01  5.81975E-01  5.72950E-01  5.62088E-01
   5.53381E-01  5.37259E-01  5.51577E-01  5.40750E-01  5.30295E-01  5.72849E-01  6.18716E-01  6.09076E-01  6.28100E-01  6.82346E-01
   7.15970E-01  7.18812E-01  7.79028E-01  7.84410E-01  7.80869E-01  7.83589E-01  7.87683E-01  7.83213E-01  7.85481E-01  7.32934E-01
   7.87980E-01  8.14551E-01  8.46611E-01  8.78954E-01  9.34150E-01  1.00254E+00  1.03296E+00  1.02422E+00  1.02324E+00  9.91368E-01
   9.46216E-01  1.00213E+00  1.15617E+00  1.45232E+00  1.81274E+00  2.25426E+00  2.62911E+00  2.83211E+00  2.91588E+00  2.77993E+00
   2.63345E+00  2.43302E+00  2.20964E+00  1.97046E+00  1.73761E+00  1.50221E+00  1.30330E+00  1.12515E+00  9.87153E-01  8.90430E-01
   7.91463E-01  7.66226E-01  6.84814E-01  6.48803E-01  6.04313E-01  5.36140E-01  5.02248E-01  4.84548E-01  4.96194E-01  4.59630E-01
   4.05584E-01  4.17187E-01  4.48902E-01  4.43990E-01  3.96799E-01  4.13381E-01  3.96211E-01  3.81927E-01  3.88199E-01  3.49263E-01
   3.48532E-01  3.90431E-01  3.61846E-01  3.29654E-01  3.43745E-01  3.00557E-01  3.48224E-01  3.43436E-01  3.56137E-01  3.38448E-01
   2.95117E-01  3.13258E-01  3.05993E-01  3.12927E-01  2.97765E-01  3.23982E-01  3.22639E-01  3.27391E-01  3.12170E-01  3.02295E-01
   2.96223E-01  3.02780E-01  2.94495E-01  2.50111E-01  2.70705E-01  2.92305E-01  2.81491E-01  2.93770E-01  2.42925E-01  2.63369E-01
   2.73670E-01  2.82639E-01  2.62693E-01  2.57595E-01  2.51125E-01  2.27588E-01  2.61349E-01  2.44319E-01  2.30668E-01  2.46089E-01
   2.57166E-01  2.60683E-01  2.28346E-01  2.34789E-01  2.28359E-01  2.03441E-01  2.45640E-01  2.48684E-01  2.34199E-01  2.89404E-01
   2.36219E-01  2.71393E-01  2.58402E-01  2.46468E-01  2.60583E-01  2.63271E-01  2.54271E-01  2.83283E-01  2.47038E-01  2.88530E-01
   2.49848E-01  2.49152E-01  2.74472E-01  2.46524E-01  2.81884E-01  2.77418E-01  2.41487E-01  2.69439E-01  2.82703E-01  2.62849E-01
   2.83461E-01  2.73659E-01  2.91556E-01  2.78433E-01  2.35733E-01  2.48879E-01  2.45050E-01  2.56190E-01  2.21537E-01  2.55842E-01
   2.42283E-01  2.25087E-01  2.24582E-01  1.99308E-01  2.14871E-01  2.35499E-01  2.03439E-01  2.12652E-01  2.01466E-01  2.16729E-01
   1.78695E-01  2.00390E-01  1.60419E-01  1.74742E-01  2.07445E-01  1.83518E-01  1.90045E-01  1.89545E-01  1.67669E-01  2.09801E-01
   1.69222E-01  1.86086E-01  1.81961E-01  1.59877E-01  1.71813E-01  1.70569E-01  1.62306E-01  1.84202E-01  1.58989E-01  1.64817E-01
   1.78233E-01  1.57612E-01  1.85057E-01  1.35355E-01  1.56807E-01  1.74656E-01  1.86662E-01  1.93261E-01  1.87850E-01  2.05995E-01
   2.12248E-01  2.14778E-01  2.34149E-01  2.31068E-01  2.14830E-01  1.96941E-01  2.41253E-01  2.02780E-01  2.42054E-01  2.27898E-01
   2.53857E-01  2.04828E-01  1.97050E-01  2.14194E-01  2.19652E-01  2.32218E-01  2.57636E-01  2.66396E-01  2.47835E-01  2.95508E-01
   2.68785E-01  2.73337E-01  2.48466E-01  2.50460E-01  2.01274E-01  2.18190E-01  2.11529E-01  1.85148E-01  2.03770E-01  1.89392E-01
   1.84115E-01  1.87325E-01  2.02161E-01  2.08777E-01  1.94190E-01  2.38448E-01  2.09838E-01  2.48458E-01  2.16879E-01  2.01715E-01
   2.15191E-01  1.72528E-01  1.93239E-01  1.66897E-01  1.77543E-01  1.70827E-01  1.44190E-01  1.56554E-01  1.60316E-01  1.37604E-01
   1.62308E-01  1.43534E-01  1.37355E-01  1.18658E-01  8.52184E-02  9.66841E-02  8.21227E-02  6.56315E-02  1.30308E-01  7.75505E-02
   8.94164E-02  3.78089E-02  9.52843E-03  1.51736E-02  1.55552E-02  1.01975E-02 -2.53131E-02 -3.31968E-02 -7.84907E-02 -9.66076E-02
  -1.51725E-01 -1.65658E-01 -1.70214E-01 -1.89633E-01 -2.02107E-01 -2.22680E-01 -2.37170E-01 -2.74157E-01 -2.74196E-01 -2.88438E-01
  -2.90793E-01 -3.40123E-01 -3.65693E-01 -3.90939E-01 -3.60217E-01 -4.11213E-01 -4.08693E-01 -4.14022E-01 -4.10845E-01 -4.15441E-01
  -4.69111E-01 -4.70765E-01 -4.63058E-01 -4.56273E-01 -4.69024E-01 -4.34291E-01 -4.73246E-01 -4.57621E-01 -4.35212E-01 -4.63814E-01
  -4.32693E-01 -4.60988E-01 -4.34888E-01 -4.30984E-01 -4.13615E-01 -4.51608E-01 -4.12301E-01 -3.78015E-01 -4.19769E-01 -3.61362E-01
  -3.66328E-01 -3.43081E-01 -3.66266E-01 -3.25900E-01 -2.70803E-01 -2.70793E-01 -2.48071E-01 -2.46845E-01 -2.58417E-01 -1.78948E-01
  -1.76416E-01 -1.53580E-01 -1.67846E-01 -1.43878E-01 -1.56996E-01 -9.49715E-02 -8.06291E-02 -8.58101E-02 -5.65345E-02 -4.29390E-02
  -1.26828E-02  4.57076E-03  2.94173E-02  1.20995E-02  3.34719E-02  3.61597E-02  6.30388E-02  5.83625E-02  5.06503E-02  9.26715E-02
   8.78207E-02  6.36865E-02  8.87614E-02  8.09529E-02  1.04171E-01  1.00900E-01  1.18892E-01  9.27124E-02  9.18398E-02  1.05157E-01
   8.57565E-02  9.32368E-02  6.26499E-02  4.11954E-02  5.01140E-02  2.38668E-02  3.65819E-02  3.00519E-02  2.42940E-03  4.09888E-02
  -2.15942E-02 -1.67627E-02  1.12344E-02 -2.83306E-02 -3.07199E-02 -2.88324E-02 -4.28102E-02 -3.18000E-02 -6.48753E-02 -4.55987E-02
  -6.10597E-02 -6.02495E-02 -6.48593E-02 -6.44269E-02 -7.69746E-02 -6.15857E-02 -8.30861E-02 -8.83567E-02 -5.17169E-02 -6.71326E-02
  -6.84936E-02 -7.67070E-02 -6.24731E-02 -6.43573E-02 -6.40095E-02 -5.95339E-02 -8.56410E-02 -9.10335E-02 -7.75419E-02 -8.79215E-02
  -6.94545E-02 -6.42551E-02 -8.53466E-02 -9.95833E-02 -1.30258E-01 -1.04895E-01 -7.84198E-02 -1.01439E-01 -1.05973E-01 -9.99991E-02
  -8.81635E-02 -1.14560E-01 -9.39410E-02 -1.08473E-01 -1.09017E-01 -8.94169E-02 -1.10973E-01 -9.45146E-02 -9.01135E-02 -1.15818E-01
  -1.04661E-01 -8.25419E-02 -8.29164E-02 -1.24334E-01 -5.22403E-02 -8.37346E-02 -7.49056E-02 -8.72623E-02 -8.03089E-02 -9.03968E-02
  -7.18881E-02 -8.29702E-02 -8.44699E-02 -6.79212E-02 -7.24273E-02 -6.79853E-02 -9.90365E-02 -6.10678E-02 -8.47614E-02 -6.50503E-02
  -7.23939E-02 -7.73562E-02 -6.38030E-02 -1.89192E-02 -6.26489E-02 -5.56127E-02 -9.94579E-02
 NY points of the fit to the data follow
   3.75548E-01  3.69506E-01  3.64279E-01  3.60015E-01  3.56406E-01  3.52448E-01  3.46932E-01  3.39472E-01  3.31721E-01  3.27053E-01
   3.28347E-01  3.36444E-01  3.50314E-01  3.67912E-01  3.87068E-01  4.06353E-01  4.25888E-01  4.48049E-01  4.78500E-01  5.26125E-01
   5.96879E-01  6.86859E-01  7.83480E-01  8.72995E-01  9.48565E-01  1.01426E+00  1.08071E+00  1.15439E+00  1.23041E+00  1.29461E+00
   1.33182E+00  1.33386E+00  1.30275E+00  1.24761E+00  1.17904E+00  1.10538E+00  1.03193E+00  9.60989E-01  8.93105E-01  8.28579E-01
   7.67654E-01  7.10655E-01  6.58630E-01  6.13261E-01  5.76045E-01  5.47752E-01  5.28322E-01  5.16979E-01  5.12372E-01  5.12728E-01
   5.16273E-01  5.21612E-01  5.27686E-01  5.33930E-01  5.41094E-01  5.51252E-01  5.65399E-01  5.81263E-01  5.94151E-01  5.99847E-01
   5.98054E-01  5.94254E-01  5.96476E-01  6.09582E-01  6.32723E-01  6.61207E-01  6.90377E-01  7.17762E-01  7.43071E-01  7.67502E-01
   7.91352E-01  8.11891E-01  8.24444E-01  8.25073E-01  8.12746E-01  7.89947E-01  7.61722E-01  7.34049E-01  7.11886E-01  6.97489E-01
   6.90473E-01  6.89050E-01  6.91348E-01  6.95886E-01  7.00533E-01  7.02203E-01  6.98057E-01  6.86540E-01  6.67993E-01  6.44752E-01
   6.20025E-01  5.96441E-01  5.75600E-01  5.58742E-01  5.48040E-01  5.47567E-01  5.62472E-01  5.96267E-01  6.47796E-01  7.09865E-01
   7.70672E-01  8.17603E-01  8.41861E-01  8.40890E-01  8.17822E-01  7.79098E-01  7.31744E-01  6.81355E-01  6.31380E-01  5.83587E-01
   5.38849E-01  4.97688E-01  4.60610E-01  4.29253E-01  4.08848E-01  4.08273E-01  4.34763E-01  4.88358E-01  5.61793E-01  6.43413E-01
   7.20746E-01  7.84719E-01  8.32420E-01  8.66686E-01  8.91685E-01  9.08239E-01  9.13681E-01  9.04839E-01  8.80438E-01  8.41669E-01
   7.91950E-01  7.36450E-01  6.80478E-01  6.27545E-01  5.79727E-01  5.39282E-01  5.08199E-01  4.86830E-01  4.73831E-01  4.66994E-01
   4.64016E-01  4.62864E-01  4.62250E-01  4.62099E-01  4.62956E-01  4.64817E-01  4.66753E-01  4.67204E-01  4.64515E-01  4.57667E-01
   4.47036E-01  4.34623E-01  4.23059E-01  4.13824E-01  4.06528E-01  3.99753E-01  3.92061E-01  3.82600E-01  3.71424E-01  3.59337E-01
   3.47432E-01  3.36692E-01  3.27896E-01  3.21711E-01  3.18675E-01  3.18816E-01  3.21313E-01  3.24759E-01  3.27853E-01  3.29853E-01
   3.30626E-01  3.30812E-01  3.32410E-01  3.38672E-01  3.51595E-01  3.69713E-01  3.88880E-01  4.04076E-01  4.11218E-01  4.08700E-01
