 LCModel (Version 6.3-0D) Copyright: S.W. Provencher.          Ref.: Magn. Reson. Med. 30:672-679 (1993).                
 S12_PRESS_35_act
 Data of: Dept of Radiology, The Johns Hopkins University School of Medicine
 24-February-2020  09:53
 32 lines in following concentration table = NCONC+1
    Conc.  %SD /Cr+PCr  Metabolite                                         
    0.361  88%   0.229 Asc                                                 
    5.512  10%   3.493 Asp                                                 
    6.952   5%   4.406 Cr                                                  
    0.426  72%   0.270 GABA                                                
    1.609  11%   1.020 GPC                                                 
    1.622   7%   1.028 GSH                                                 
    1.770  24%   1.121 Gln                                                 
   14.180   5%   8.986 Glu                                                 
    9.191   4%   5.825 Ins                                                 
    0.383  65%   0.243 Lac                                                 
   14.287   2%   9.053 NAA                                                 
    0.576  35%   0.365 NAAG                                                
    0.215  82%   0.136 PCh                                                 
    5.672   6%   3.594 PCr                                                 
    3.756  15%   2.380 PE                                                  
    0.191  28%   0.121 Scyllo                                              
    2.114  22%   1.340 Tau                                                 
    0.000 999%   0.000 -CrCH2                                              
    1.824   3%   1.156 PCh+GPC                                             
   12.624   1%   8.000 Cr+PCr                                              
   14.863   2%   9.418 NAA+NAAG                                            
   15.949   5%  10.107 Glu+Gln                                             
   55.562  17%  35.210 Lip13a                                              
    0.000 999%   0.000 Lip13b                                              
    9.911  33%   6.280 Lip09                                               
    5.942  27%   3.765 MM09                                                
    9.574   8%   6.067 Lip20                                               
    6.785  34%   4.300 MM20                                                
    5.399  16%   3.421 MM12                                                
   15.925  21%  10.092 MM14                                                
    7.129  27%   4.518 MM17                                                
   6 lines in following misc. output table
  FWHM = 0.034 ppm    S/N =  53                                            
  Data shift = 0.000 ppm                                                   
  Ph:  -9 deg      -1.7 deg/ppm                                            
  alphaB,S = 3.1E-02,   7.7E-01                                            
   26 spline knots.   Ns =10(1)                                            
  ( 4) 2 infls.   ( 1) 1 extrs.                                            
  917 points on ppm-axis = NY
      4.000000     3.996178     3.992356     3.988534     3.984712     3.980890     3.977067     3.973245     3.969423     3.965601
      3.961779     3.957957     3.954135     3.950313     3.946491     3.942669     3.938847     3.935024     3.931202     3.927380
      3.923558     3.919736     3.915914     3.912092     3.908270     3.904448     3.900626     3.896804     3.892982     3.889159
      3.885337     3.881515     3.877693     3.873871     3.870049     3.866227     3.862405     3.858583     3.854761     3.850939
      3.847116     3.843294     3.839472     3.835650     3.831828     3.828006     3.824184     3.820362     3.816540     3.812718
      3.808896     3.805073     3.801251     3.797429     3.793607     3.789785     3.785963     3.782141     3.778319     3.774497
      3.770675     3.766853     3.763031     3.759208     3.755386     3.751564     3.747742     3.743920     3.740098     3.736276
      3.732454     3.728632     3.724810     3.720988     3.717165     3.713343     3.709521     3.705699     3.701877     3.698055
      3.694233     3.690411     3.686589     3.682767     3.678945     3.675122     3.671300     3.667478     3.663656     3.659834
      3.656012     3.652190     3.648368     3.644546     3.640724     3.636902     3.633080     3.629257     3.625435     3.621613
      3.617791     3.613969     3.610147     3.606325     3.602503     3.598681     3.594859     3.591037     3.587214     3.583392
      3.579570     3.575748     3.571926     3.568104     3.564282     3.560460     3.556638     3.552816     3.548994     3.545171
      3.541349     3.537527     3.533705     3.529883     3.526061     3.522239     3.518417     3.514595     3.510773     3.506951
      3.503129     3.499306     3.495484     3.491662     3.487840     3.484018     3.480196     3.476374     3.472552     3.468730
      3.464908     3.461086     3.457263     3.453441     3.449619     3.445797     3.441975     3.438153     3.434331     3.430509
      3.426687     3.422865     3.419043     3.415220     3.411398     3.407576     3.403754     3.399932     3.396110     3.392288
      3.388466     3.384644     3.380822     3.377000     3.373178     3.369355     3.365533     3.361711     3.357889     3.354067
      3.350245     3.346423     3.342601     3.338779     3.334957     3.331135     3.327312     3.323490     3.319668     3.315846
      3.312024     3.308202     3.304380     3.300558     3.296736     3.292914     3.289092     3.285269     3.281447     3.277625
      3.273803     3.269981     3.266159     3.262337     3.258515     3.254693     3.250871     3.247049     3.243227     3.239404
      3.235582     3.231760     3.227938     3.224116     3.220294     3.216472     3.212650     3.208828     3.205006     3.201184
      3.197361     3.193539     3.189717     3.185895     3.182073     3.178251     3.174429     3.170607     3.166785     3.162963
      3.159141     3.155318     3.151496     3.147674     3.143852     3.140030     3.136208     3.132386     3.128564     3.124742
      3.120920     3.117098     3.113276     3.109453     3.105631     3.101809     3.097987     3.094165     3.090343     3.086521
      3.082699     3.078877     3.075055     3.071233     3.067410     3.063588     3.059766     3.055944     3.052122     3.048300
      3.044478     3.040656     3.036834     3.033012     3.029190     3.025367     3.021545     3.017723     3.013901     3.010079
      3.006257     3.002435     2.998613     2.994791     2.990969     2.987147     2.983325     2.979502     2.975680     2.971858
      2.968036     2.964214     2.960392     2.956570     2.952748     2.948926     2.945104     2.941282     2.937459     2.933637
      2.929815     2.925993     2.922171     2.918349     2.914527     2.910705     2.906883     2.903061     2.899239     2.895416
      2.891594     2.887772     2.883950     2.880128     2.876306     2.872484     2.868662     2.864840     2.861018     2.857196
      2.853374     2.849551     2.845729     2.841907     2.838085     2.834263     2.830441     2.826619     2.822797     2.818975
      2.815153     2.811331     2.807508     2.803686     2.799864     2.796042     2.792220     2.788398     2.784576     2.780754
      2.776932     2.773110     2.769288     2.765465     2.761643     2.757821     2.753999     2.750177     2.746355     2.742533
      2.738711     2.734889     2.731067     2.727245     2.723423     2.719600     2.715778     2.711956     2.708134     2.704312
      2.700490     2.696668     2.692846     2.689024     2.685202     2.681380     2.677557     2.673735     2.669913     2.666091
      2.662269     2.658447     2.654625     2.650803     2.646981     2.643159     2.639337     2.635514     2.631692     2.627870
      2.624048     2.620226     2.616404     2.612582     2.608760     2.604938     2.601116     2.597294     2.593472     2.589649
      2.585827     2.582005     2.578183     2.574361     2.570539     2.566717     2.562895     2.559073     2.555251     2.551429
      2.547606     2.543784     2.539962     2.536140     2.532318     2.528496     2.524674     2.520852     2.517030     2.513208
      2.509386     2.505563     2.501741     2.497919     2.494097     2.490275     2.486453     2.482631     2.478809     2.474987
      2.471165     2.467343     2.463521     2.459698     2.455876     2.452054     2.448232     2.444410     2.440588     2.436766
      2.432944     2.429122     2.425300     2.421478     2.417655     2.413833     2.410011     2.406189     2.402367     2.398545
      2.394723     2.390901     2.387079     2.383257     2.379435     2.375612     2.371790     2.367968     2.364146     2.360324
      2.356502     2.352680     2.348858     2.345036     2.341214     2.337392     2.333570     2.329747     2.325925     2.322103
      2.318281     2.314459     2.310637     2.306815     2.302993     2.299171     2.295349     2.291527     2.287704     2.283882
      2.280060     2.276238     2.272416     2.268594     2.264772     2.260950     2.257128     2.253306     2.249484     2.245661
      2.241839     2.238017     2.234195     2.230373     2.226551     2.222729     2.218907     2.215085     2.211263     2.207441
      2.203619     2.199796     2.195974     2.192152     2.188330     2.184508     2.180686     2.176864     2.173042     2.169220
      2.165398     2.161576     2.157753     2.153931     2.150109     2.146287     2.142465     2.138643     2.134821     2.130999
      2.127177     2.123355     2.119533     2.115710     2.111888     2.108066     2.104244     2.100422     2.096600     2.092778
      2.088956     2.085134     2.081312     2.077490     2.073668     2.069845     2.066023     2.062201     2.058379     2.054557
      2.050735     2.046913     2.043091     2.039269     2.035447     2.031625     2.027802     2.023980     2.020158     2.016336
      2.012514     2.008692     2.004870     2.001048     1.997226     1.993404     1.989582     1.985759     1.981937     1.978115
      1.974293     1.970471     1.966649     1.962827     1.959005     1.955183     1.951361     1.947539     1.943717     1.939894
      1.936072     1.932250     1.928428     1.924606     1.920784     1.916962     1.913140     1.909318     1.905496     1.901674
      1.897851     1.894029     1.890207     1.886385     1.882563     1.878741     1.874919     1.871097     1.867275     1.863453
      1.859631     1.855808     1.851986     1.848164     1.844342     1.840520     1.836698     1.832876     1.829054     1.825232
      1.821410     1.817588     1.813766     1.809943     1.806121     1.802299     1.798477     1.794655     1.790833     1.787011
      1.783189     1.779367     1.775545     1.771723     1.767900     1.764078     1.760256     1.756434     1.752612     1.748790
      1.744968     1.741146     1.737324     1.733502     1.729680     1.725857     1.722035     1.718213     1.714391     1.710569
      1.706747     1.702925     1.699103     1.695281     1.691459     1.687637     1.683815     1.679992     1.676170     1.672348
      1.668526     1.664704     1.660882     1.657060     1.653238     1.649416     1.645594     1.641772     1.637949     1.634127
      1.630305     1.626483     1.622661     1.618839     1.615017     1.611195     1.607373     1.603551     1.599729     1.595906
      1.592084     1.588262     1.584440     1.580618     1.576796     1.572974     1.569152     1.565330     1.561508     1.557686
      1.553864     1.550041     1.546219     1.542397     1.538575     1.534753     1.530931     1.527109     1.523287     1.519465
      1.515643     1.511821     1.507998     1.504176     1.500354     1.496532     1.492710     1.488888     1.485066     1.481244
      1.477422     1.473600     1.469778     1.465955     1.462133     1.458311     1.454489     1.450667     1.446845     1.443023
      1.439201     1.435379     1.431557     1.427735     1.423913     1.420090     1.416268     1.412446     1.408624     1.404802
      1.400980     1.397158     1.393336     1.389514     1.385692     1.381870     1.378047     1.374225     1.370403     1.366581
      1.362759     1.358937     1.355115     1.351293     1.347471     1.343649     1.339827     1.336004     1.332182     1.328360
      1.324538     1.320716     1.316894     1.313072     1.309250     1.305428     1.301606     1.297784     1.293962     1.290139
      1.286317     1.282495     1.278673     1.274851     1.271029     1.267207     1.263385     1.259563     1.255741     1.251919
      1.248096     1.244274     1.240452     1.236630     1.232808     1.228986     1.225164     1.221342     1.217520     1.213698
      1.209876     1.206053     1.202231     1.198409     1.194587     1.190765     1.186943     1.183121     1.179299     1.175477
      1.171655     1.167833     1.164011     1.160188     1.156366     1.152544     1.148722     1.144900     1.141078     1.137256
      1.133434     1.129612     1.125790     1.121968     1.118145     1.114323     1.110501     1.106679     1.102857     1.099035
      1.095213     1.091391     1.087569     1.083747     1.079925     1.076102     1.072280     1.068458     1.064636     1.060814
      1.056992     1.053170     1.049348     1.045526     1.041704     1.037882     1.034060     1.030237     1.026415     1.022593
      1.018771     1.014949     1.011127     1.007305     1.003483     0.999661     0.995839     0.992016     0.988194     0.984372
      0.980550     0.976728     0.972906     0.969083     0.965261     0.961439     0.957617     0.953795     0.949973     0.946151
      0.942328     0.938506     0.934684     0.930862     0.927040     0.923218     0.919396     0.915573     0.911751     0.907929
      0.904107     0.900285     0.896463     0.892641     0.888818     0.884996     0.881174     0.877352     0.873530     0.869708
      0.865885     0.862063     0.858241     0.854419     0.850597     0.846775     0.842953     0.839130     0.835308     0.831486
      0.827664     0.823842     0.820020     0.816198     0.812375     0.808553     0.804731     0.800909     0.797087     0.793265
      0.789443     0.785620     0.781798     0.777976     0.774154     0.770332     0.766510     0.762688     0.758865     0.755043
      0.751221     0.747399     0.743577     0.739755     0.735932     0.732110     0.728288     0.724466     0.720644     0.716822
      0.713000     0.709177     0.705355     0.701533     0.697711     0.693889     0.690067     0.686245     0.682422     0.678600
      0.674778     0.670956     0.667134     0.663312     0.659490     0.655667     0.651845     0.648023     0.644201     0.640379
      0.636557     0.632734     0.628912     0.625090     0.621268     0.617446     0.613624     0.609802     0.605979     0.602157
      0.598335     0.594513     0.590691     0.586869     0.583047     0.579224     0.575402     0.571580     0.567758     0.563936
      0.560114     0.556292     0.552469     0.548647     0.544825     0.541003     0.537181     0.533359     0.529536     0.525714
      0.521892     0.518070     0.514248     0.510426     0.506604     0.502781     0.498959
 NY phased data points follow
   4.03580E-01  4.65037E-01  4.30398E-01  4.60464E-01  4.67499E-01  4.86681E-01  4.86728E-01  4.71582E-01  4.57810E-01  4.79326E-01
   4.77525E-01  4.97820E-01  5.53626E-01  5.35868E-01  5.80587E-01  5.92876E-01  6.19671E-01  6.72588E-01  7.53112E-01  8.11836E-01
   8.70811E-01  9.27948E-01  9.89535E-01  1.11473E+00  1.18792E+00  1.28903E+00  1.34430E+00  1.38000E+00  1.46069E+00  1.47603E+00
   1.46201E+00  1.44853E+00  1.41428E+00  1.32732E+00  1.26706E+00  1.16317E+00  1.11805E+00  1.05118E+00  9.55060E-01  9.25433E-01
   8.33785E-01  8.05188E-01  7.77207E-01  7.10541E-01  7.00408E-01  6.45473E-01  6.43704E-01  6.49711E-01  6.22283E-01  6.15030E-01
   6.16649E-01  6.06095E-01  6.07249E-01  6.29261E-01  6.10245E-01  6.20654E-01  6.20540E-01  6.23578E-01  6.60185E-01  6.77967E-01
   6.82890E-01  6.83305E-01  6.96990E-01  6.88942E-01  7.34516E-01  7.42192E-01  7.68547E-01  7.98464E-01  8.18887E-01  8.41659E-01
   8.45516E-01  8.77025E-01  8.38596E-01  8.78286E-01  8.55051E-01  8.18102E-01  8.06619E-01  7.57137E-01  7.75521E-01  7.22670E-01
   6.86610E-01  7.34978E-01  7.38212E-01  7.53318E-01  7.47510E-01  7.16980E-01  7.29601E-01  6.94321E-01  6.72142E-01  6.69146E-01
   6.03325E-01  5.99207E-01  6.22066E-01  5.90527E-01  5.93890E-01  6.29161E-01  6.28927E-01  6.73755E-01  7.11782E-01  7.28692E-01
   8.00755E-01  8.29619E-01  8.25472E-01  8.30525E-01  7.98991E-01  7.59378E-01  7.23269E-01  6.72479E-01  6.14766E-01  5.85641E-01
   4.96975E-01  5.10200E-01  4.88772E-01  4.80015E-01  4.83544E-01  4.91909E-01  5.21764E-01  5.99705E-01  6.64545E-01  7.34868E-01
   7.97523E-01  8.08310E-01  8.92199E-01  9.13113E-01  8.97020E-01  9.54206E-01  9.00760E-01  9.16706E-01  8.48203E-01  8.00654E-01
   7.47252E-01  7.25531E-01  6.27670E-01  5.84082E-01  5.60761E-01  5.01434E-01  4.74182E-01  4.61457E-01  4.80248E-01  4.27558E-01
   4.52385E-01  4.58266E-01  4.37772E-01  4.70311E-01  4.32374E-01  4.36661E-01  4.50010E-01  4.38395E-01  4.34823E-01  4.49986E-01
   4.45006E-01  4.37861E-01  4.12272E-01  3.99554E-01  4.14424E-01  4.57037E-01  3.95296E-01  4.18197E-01  4.08834E-01  4.25080E-01
   4.08438E-01  4.05299E-01  3.85079E-01  3.43236E-01  3.79047E-01  3.46679E-01  3.39816E-01  3.27553E-01  3.27098E-01  3.13515E-01
   3.54941E-01  3.58038E-01  3.63586E-01  3.70351E-01  3.48883E-01  3.85189E-01  3.72435E-01  3.54520E-01  3.64909E-01  3.42551E-01
   3.79631E-01  3.63034E-01  3.33920E-01  3.46358E-01  3.29620E-01  2.91478E-01  2.71013E-01  3.21913E-01  3.21507E-01  3.14023E-01
   3.36490E-01  3.86376E-01  3.92714E-01  4.35633E-01  4.74192E-01  4.56715E-01  5.07886E-01  5.07535E-01  5.33860E-01  5.53296E-01
   5.81141E-01  6.07292E-01  5.77619E-01  5.89804E-01  6.14432E-01  6.34843E-01  5.97144E-01  6.50269E-01  7.20642E-01  8.21378E-01
   9.01661E-01  9.92966E-01  1.12918E+00  1.18641E+00  1.22485E+00  1.21528E+00  1.16926E+00  1.12097E+00  1.03709E+00  9.24235E-01
   8.68004E-01  8.02304E-01  6.97125E-01  6.59268E-01  6.27364E-01  5.43641E-01  5.28125E-01  4.95131E-01  4.40995E-01  4.45026E-01
   4.19539E-01  4.11671E-01  3.96823E-01  3.91394E-01  3.82303E-01  3.89101E-01  3.79282E-01  3.76322E-01  3.57451E-01  3.78937E-01
   3.53420E-01  3.77776E-01  3.52453E-01  3.92364E-01  3.73735E-01  3.81205E-01  3.88319E-01  4.20275E-01  4.13136E-01  4.73468E-01
   4.68223E-01  5.03521E-01  5.46739E-01  6.21367E-01  7.54493E-01  8.48568E-01  9.76737E-01  1.16499E+00  1.35235E+00  1.56474E+00
   1.77965E+00  1.84527E+00  1.90453E+00  1.87000E+00  1.82883E+00  1.71072E+00  1.55983E+00  1.42031E+00  1.24879E+00  1.15815E+00
   1.00102E+00  8.80755E-01  7.91183E-01  6.96635E-01  6.37970E-01  5.84462E-01  5.57008E-01  5.28942E-01  4.59401E-01  4.68800E-01
   4.05098E-01  4.00149E-01  3.77761E-01  3.58912E-01  3.37709E-01  3.57367E-01  3.28885E-01  3.27755E-01  3.47817E-01  3.36402E-01
   3.53011E-01  2.99675E-01  3.37658E-01  3.12819E-01  2.83389E-01  2.83435E-01  2.68566E-01  2.77093E-01  2.64034E-01  2.54457E-01
   2.51764E-01  2.40492E-01  2.50910E-01  2.30923E-01  2.27522E-01  2.40119E-01  2.33357E-01  1.98269E-01  2.35875E-01  2.31358E-01
   2.10340E-01  2.16899E-01  2.28055E-01  2.62918E-01  2.29095E-01  2.14579E-01  2.35631E-01  2.20652E-01  2.14477E-01  2.50467E-01
   2.45000E-01  2.59592E-01  2.80712E-01  3.05964E-01  2.88689E-01  3.20208E-01  3.42978E-01  3.63558E-01  3.61574E-01  3.39965E-01
   3.20382E-01  3.08392E-01  3.07030E-01  2.86238E-01  3.29919E-01  3.52400E-01  3.52246E-01  3.36510E-01  3.80296E-01  3.66962E-01
   3.19071E-01  2.82599E-01  2.96918E-01  2.50397E-01  2.36963E-01  2.21040E-01  2.13845E-01  1.66623E-01  1.77858E-01  1.82011E-01
   2.10009E-01  1.52598E-01  2.36706E-01  1.90910E-01  2.15872E-01  2.03854E-01  2.46417E-01  2.93673E-01  2.40981E-01  2.98667E-01
   3.12288E-01  3.44916E-01  3.35658E-01  3.45711E-01  3.84111E-01  3.73320E-01  3.45342E-01  3.53805E-01  3.93284E-01  4.11784E-01
   4.27780E-01  4.64171E-01  4.17085E-01  4.73913E-01  4.40583E-01  4.52069E-01  4.75702E-01  4.58885E-01  4.32793E-01  4.06815E-01
   4.59150E-01  4.12528E-01  3.47112E-01  3.83701E-01  3.56655E-01  3.32922E-01  3.12038E-01  3.41045E-01  3.30398E-01  3.08742E-01
   3.22862E-01  3.08523E-01  3.14292E-01  2.98669E-01  3.08041E-01  3.15745E-01  2.94846E-01  3.41374E-01  3.66972E-01  3.88147E-01
   4.07328E-01  4.11175E-01  3.98212E-01  4.42014E-01  4.22714E-01  4.31067E-01  4.51062E-01  4.33299E-01  4.94857E-01  5.17303E-01
   5.07787E-01  5.31629E-01  5.87879E-01  5.99161E-01  5.82971E-01  5.98159E-01  6.20397E-01  6.24869E-01  5.80596E-01  5.80622E-01
   5.71030E-01  5.51631E-01  5.26512E-01  4.98848E-01  5.10413E-01  4.88036E-01  4.66149E-01  4.70051E-01  4.39842E-01  4.88835E-01
   4.66824E-01  5.38580E-01  5.77624E-01  6.49733E-01  7.26199E-01  7.85495E-01  8.61106E-01  8.76977E-01  8.72304E-01  8.75167E-01
   8.44989E-01  8.25288E-01  7.59814E-01  6.78704E-01  6.42157E-01  6.22578E-01  6.02085E-01  5.32064E-01  5.28875E-01  5.44968E-01
   5.63465E-01  5.70531E-01  6.40057E-01  6.55070E-01  6.76645E-01  6.80390E-01  7.35332E-01  7.01840E-01  7.07572E-01  6.63953E-01
   6.57236E-01  6.65173E-01  6.56523E-01  6.60039E-01  6.41325E-01  6.30398E-01  6.10584E-01  6.11100E-01  5.97575E-01  5.53701E-01
   5.66868E-01  5.67845E-01  5.08512E-01  4.92961E-01  5.49686E-01  5.38545E-01  5.33490E-01  5.48692E-01  5.41861E-01  5.55537E-01
   5.51684E-01  5.84792E-01  5.53738E-01  5.91760E-01  5.60616E-01  5.54210E-01  5.66675E-01  5.65747E-01  5.72921E-01  5.19448E-01
   5.37332E-01  5.39690E-01  5.38138E-01  5.62863E-01  5.80659E-01  5.90916E-01  6.51457E-01  6.55043E-01  6.63230E-01  7.36092E-01
   7.55376E-01  7.58525E-01  7.83813E-01  7.72160E-01  7.78279E-01  7.89052E-01  8.21245E-01  8.40543E-01  8.39222E-01  8.42933E-01
   8.43218E-01  8.80032E-01  9.08180E-01  9.28020E-01  9.52632E-01  1.00530E+00  1.04410E+00  1.08419E+00  1.12090E+00  1.17763E+00
   1.27990E+00  1.37620E+00  1.54883E+00  1.74560E+00  1.97459E+00  2.22122E+00  2.41088E+00  2.55197E+00  2.60961E+00  2.61015E+00
   2.46530E+00  2.32307E+00  2.14011E+00  1.91692E+00  1.71923E+00  1.51265E+00  1.31857E+00  1.20615E+00  1.07399E+00  9.36311E-01
   8.64543E-01  7.99219E-01  7.21579E-01  6.77430E-01  6.27410E-01  5.74231E-01  5.20591E-01  4.81628E-01  5.13541E-01  4.81531E-01
   4.14397E-01  4.57973E-01  4.20835E-01  3.80928E-01  3.84332E-01  3.85725E-01  3.76452E-01  3.40031E-01  3.61792E-01  3.37590E-01
   3.31766E-01  3.21916E-01  3.05018E-01  2.87392E-01  2.94674E-01  2.90521E-01  2.89409E-01  2.97306E-01  2.70144E-01  2.65656E-01
   2.66728E-01  2.77423E-01  2.85709E-01  2.74498E-01  2.67627E-01  2.69879E-01  2.62518E-01  2.90799E-01  2.49881E-01  2.75019E-01
   2.70782E-01  2.49427E-01  2.03293E-01  2.26337E-01  2.61294E-01  2.20548E-01  2.26113E-01  2.36113E-01  2.27358E-01  2.48732E-01
   2.29270E-01  2.47235E-01  1.95168E-01  1.92573E-01  2.21432E-01  1.96905E-01  2.42181E-01  2.40342E-01  2.18063E-01  1.72759E-01
   2.10175E-01  1.85952E-01  2.16203E-01  2.16716E-01  2.02163E-01  1.71107E-01  2.19505E-01  2.06420E-01  1.76207E-01  2.31140E-01
   2.28505E-01  2.17345E-01  2.29310E-01  2.54635E-01  2.09207E-01  2.51808E-01  2.51493E-01  2.38274E-01  2.53103E-01  2.67483E-01
   2.65430E-01  2.58909E-01  2.69179E-01  2.76441E-01  2.65404E-01  2.78509E-01  2.82876E-01  2.74539E-01  2.58841E-01  2.71199E-01
   2.62069E-01  2.90910E-01  2.98235E-01  3.21318E-01  3.08433E-01  3.08993E-01  3.01497E-01  3.04014E-01  2.68270E-01  3.00919E-01
   3.23162E-01  3.12919E-01  2.89344E-01  2.90039E-01  3.11712E-01  2.83337E-01  3.15974E-01  3.23541E-01  3.04140E-01  3.12434E-01
   3.05598E-01  2.69373E-01  3.10123E-01  2.90786E-01  3.17780E-01  3.17705E-01  2.97125E-01  3.72531E-01  3.47410E-01  3.17045E-01
   3.83723E-01  3.59082E-01  3.42377E-01  3.65582E-01  3.16146E-01  3.77805E-01  3.42260E-01  3.49017E-01  3.47460E-01  3.90236E-01
   3.82802E-01  3.88816E-01  3.92605E-01  4.32979E-01  4.19493E-01  3.80883E-01  4.04391E-01  4.62785E-01  4.37627E-01  4.29425E-01
   4.63975E-01  4.53507E-01  4.53893E-01  4.47178E-01  4.32787E-01  4.66270E-01  4.30354E-01  4.38814E-01  4.43099E-01  4.32822E-01
   4.46654E-01  4.33227E-01  4.32103E-01  4.34191E-01  4.55852E-01  4.49397E-01  4.65145E-01  4.56189E-01  4.68702E-01  4.61810E-01
   4.46623E-01  4.94303E-01  4.61181E-01  4.45826E-01  4.67240E-01  4.38701E-01  4.21876E-01  4.29360E-01  4.44541E-01  4.54729E-01
   4.36106E-01  4.03763E-01  3.95026E-01  3.93208E-01  3.94766E-01  4.24639E-01  4.22232E-01  4.38277E-01  4.17140E-01  3.68944E-01
   3.92313E-01  3.75251E-01  3.47529E-01  3.79413E-01  3.39224E-01  3.48459E-01  3.43695E-01  3.34233E-01  3.07905E-01  2.82271E-01
   2.89903E-01  2.46514E-01  2.31921E-01  2.32641E-01  2.27457E-01  2.15742E-01  1.70542E-01  1.86370E-01  1.39435E-01  1.34240E-01
   1.16760E-01  1.17844E-01  5.61850E-02  6.77061E-02  4.45374E-02  7.88028E-03  7.69246E-03 -2.11558E-02 -3.35034E-02 -5.02155E-02
  -7.75023E-02 -1.33651E-01 -1.60503E-01 -1.55940E-01 -1.66739E-01 -1.94077E-01 -2.47496E-01 -2.37465E-01 -2.47986E-01 -2.83568E-01
  -3.03520E-01 -3.18262E-01 -3.22051E-01 -3.19409E-01 -3.86372E-01 -3.49808E-01 -3.83787E-01 -3.73595E-01 -4.03597E-01 -4.18358E-01
  -3.97997E-01 -4.25320E-01 -4.25273E-01 -4.36500E-01 -4.26723E-01 -4.51312E-01 -4.51727E-01 -4.45491E-01 -4.63781E-01 -4.49806E-01
  -4.72071E-01 -4.81309E-01 -5.21877E-01 -5.21486E-01 -4.90603E-01 -5.05482E-01 -4.97180E-01 -4.88611E-01 -4.81709E-01 -4.64310E-01
  -4.56792E-01 -4.75821E-01 -4.82804E-01 -4.57680E-01 -4.51396E-01 -4.50177E-01 -4.30658E-01 -3.92869E-01 -3.85802E-01 -3.62572E-01
  -3.69145E-01 -3.61822E-01 -3.24015E-01 -3.34162E-01 -3.48676E-01 -3.23428E-01 -3.44260E-01 -3.31423E-01 -3.30360E-01 -2.84655E-01
  -2.84771E-01 -2.83441E-01 -2.20993E-01 -2.50759E-01 -2.38774E-01 -2.85696E-01 -2.66653E-01 -2.72149E-01 -2.32006E-01 -2.05871E-01
  -2.39637E-01 -1.91113E-01 -1.56999E-01 -2.12520E-01 -2.17205E-01 -1.79838E-01 -2.00676E-01 -1.92502E-01 -1.74809E-01 -1.58961E-01
  -2.10684E-01 -1.55707E-01 -1.63855E-01 -1.85235E-01 -1.66839E-01 -1.89527E-01 -2.17873E-01 -2.06614E-01 -1.96310E-01 -2.10570E-01
  -1.71153E-01 -1.90183E-01 -1.77132E-01 -1.74377E-01 -2.08754E-01 -2.03712E-01 -2.18653E-01 -1.94199E-01 -2.28646E-01 -2.09190E-01
  -2.21452E-01 -2.15140E-01 -2.19855E-01 -2.28119E-01 -2.59803E-01 -2.53852E-01 -2.00058E-01 -2.30377E-01 -2.48932E-01 -2.12401E-01
  -2.16750E-01 -2.33952E-01 -2.09787E-01 -2.43076E-01 -2.27737E-01 -2.07947E-01 -2.34546E-01 -2.36595E-01 -2.19105E-01 -2.20277E-01
  -2.29117E-01 -2.29598E-01 -2.02045E-01 -2.21686E-01 -2.24069E-01 -2.51776E-01 -2.22261E-01 -1.90711E-01 -2.39866E-01 -2.15307E-01
  -1.77788E-01 -1.90950E-01 -2.16868E-01 -2.06269E-01 -2.00013E-01 -2.11304E-01 -1.85511E-01 -2.43590E-01 -1.97943E-01 -1.82299E-01
  -2.09366E-01 -2.21466E-01 -2.14092E-01 -1.95245E-01 -1.94624E-01 -2.06970E-01 -1.83068E-01 -1.88976E-01 -1.57306E-01 -1.65261E-01
  -1.58730E-01 -1.47077E-01 -1.74750E-01 -1.70307E-01 -1.97097E-01 -1.38341E-01 -1.50930E-01 -1.43676E-01 -1.62808E-01 -1.62517E-01
  -1.48958E-01 -1.38929E-01 -1.60815E-01 -1.43256E-01 -1.50631E-01 -1.41624E-01 -1.40690E-01
 NY points of the fit to the data follow
   4.90966E-01  4.86937E-01  4.78064E-01  4.72263E-01  4.72019E-01  4.67587E-01  4.63672E-01  4.62280E-01  4.60918E-01  4.64775E-01
   4.72415E-01  4.83597E-01  5.01325E-01  5.24367E-01  5.52406E-01  5.86413E-01  6.20990E-01  6.59494E-01  7.18780E-01  7.91207E-01
   8.66043E-01  9.51352E-01  1.04284E+00  1.12770E+00  1.20684E+00  1.28388E+00  1.34445E+00  1.39070E+00  1.43773E+00  1.46819E+00
   1.47444E+00  1.46379E+00  1.42025E+00  1.35465E+00  1.28788E+00  1.20693E+00  1.12327E+00  1.05240E+00  9.78907E-01  9.02113E-01
   8.38485E-01  7.81298E-01  7.29173E-01  6.92544E-01  6.61948E-01  6.35324E-01  6.16446E-01  6.04100E-01  5.98867E-01  5.99043E-01
   6.01523E-01  6.05584E-01  6.09808E-01  6.15258E-01  6.24851E-01  6.35077E-01  6.43392E-01  6.54156E-01  6.64050E-01  6.68484E-01
   6.75865E-01  6.86115E-01  6.93939E-01  7.06248E-01  7.27370E-01  7.53594E-01  7.78539E-01  8.02090E-01  8.25491E-01  8.45114E-01
   8.60502E-01  8.67499E-01  8.68808E-01  8.65009E-01  8.46186E-01  8.22004E-01  8.01384E-01  7.75855E-01  7.55278E-01  7.43356E-01
   7.35067E-01  7.33818E-01  7.29884E-01  7.26384E-01  7.25795E-01  7.17269E-01  7.03491E-01  6.87058E-01  6.67784E-01  6.46718E-01
   6.26637E-01  6.14063E-01  6.05301E-01  6.01660E-01  6.09265E-01  6.24440E-01  6.47725E-01  6.83381E-01  7.23420E-01  7.63003E-01
   7.99143E-01  8.23564E-01  8.29274E-01  8.17305E-01  7.88743E-01  7.47290E-01  7.00073E-01  6.50065E-01  6.01689E-01  5.60565E-01
   5.25816E-01  4.97169E-01  4.74808E-01  4.66889E-01  4.77502E-01  4.99138E-01  5.32235E-01  5.86366E-01  6.51294E-01  7.15327E-01
   7.76649E-01  8.29554E-01  8.69606E-01  8.94946E-01  9.06264E-01  9.05025E-01  8.94485E-01  8.74646E-01  8.37523E-01  7.96153E-01
   7.54216E-01  6.99548E-01  6.50362E-01  6.10553E-01  5.68615E-01  5.37214E-01  5.10633E-01  4.90247E-01  4.83379E-01  4.77622E-01
   4.75373E-01  4.77761E-01  4.79442E-01  4.79654E-01  4.78874E-01  4.77688E-01  4.75597E-01  4.73322E-01  4.67024E-01  4.56934E-01
   4.47515E-01  4.35665E-01  4.23772E-01  4.16021E-01  4.07357E-01  4.00651E-01  3.96443E-01  3.91289E-01  3.87051E-01  3.81626E-01
   3.73854E-01  3.65398E-01  3.57698E-01  3.50682E-01  3.44775E-01  3.42353E-01  3.42157E-01  3.43722E-01  3.47692E-01  3.52608E-01
   3.56425E-01  3.59221E-01  3.62077E-01  3.64087E-01  3.65498E-01  3.68734E-01  3.70847E-01  3.71758E-01  3.71821E-01  3.67770E-01
