 LCModel (Version 6.3-0D) Copyright: S.W. Provencher.          Ref.: Magn. Reson. Med. 30:672-679 (1993).                
 S07_PRESS_35_act
 Data of: Dept of Radiology, The Johns Hopkins University School of Medicine
 24-February-2020  09:51
 32 lines in following concentration table = NCONC+1
    Conc.  %SD /Cr+PCr  Metabolite                                         
    0.000 999%   0.000 Asc                                                 
    4.512  12%   3.406 Asp                                                 
    6.155   5%   4.646 Cr                                                  
    0.542  54%   0.409 GABA                                                
    1.444  11%   1.090 GPC                                                 
    1.907   6%   1.439 GSH                                                 
    2.838  15%   2.142 Gln                                                 
   15.576   4%  11.757 Glu                                                 
    9.796   3%   7.394 Ins                                                 
    0.734  31%   0.554 Lac                                                 
   14.072   2%  10.622 NAA                                                 
    0.667  26%   0.503 NAAG                                                
    0.544  29%   0.411 PCh                                                 
    4.443   6%   3.354 PCr                                                 
    2.576  20%   1.945 PE                                                  
    0.276  18%   0.208 Scyllo                                              
    2.151  19%   1.624 Tau                                                 
    0.000 999%   0.000 -CrCH2                                              
    1.988   2%   1.500 PCh+GPC                                             
   10.598   1%   8.000 Cr+PCr                                              
   14.739   1%  11.125 NAA+NAAG                                            
   18.414   4%  13.899 Glu+Gln                                             
   16.453  30%  12.419 Lip13a                                              
    0.000 999%   0.000 Lip13b                                              
    3.649  44%   2.754 Lip09                                               
    6.109  27%   4.611 MM09                                                
    4.116  17%   3.107 Lip20                                               
    9.283  22%   7.007 MM20                                                
    3.320  31%   2.506 MM12                                                
    6.280  28%   4.740 MM14                                                
    6.400  25%   4.831 MM17                                                
   6 lines in following misc. output table
  FWHM = 0.031 ppm    S/N =  55                                            
  Data shift = 0.004 ppm                                                   
  Ph:  -7 deg      -1.4 deg/ppm                                            
  alphaB,S = 3.6E-02,   4.0E-01                                            
   26 spline knots.   Ns = 9(1)                                            
   2 inflections.     1 extrema                                            
  917 points on ppm-axis = NY
      4.000000     3.996178     3.992356     3.988534     3.984712     3.980890     3.977067     3.973245     3.969423     3.965601
      3.961779     3.957957     3.954135     3.950313     3.946491     3.942669     3.938847     3.935024     3.931202     3.927380
      3.923558     3.919736     3.915914     3.912092     3.908270     3.904448     3.900626     3.896804     3.892982     3.889159
      3.885337     3.881515     3.877693     3.873871     3.870049     3.866227     3.862405     3.858583     3.854761     3.850939
      3.847116     3.843294     3.839472     3.835650     3.831828     3.828006     3.824184     3.820362     3.816540     3.812718
      3.808896     3.805073     3.801251     3.797429     3.793607     3.789785     3.785963     3.782141     3.778319     3.774497
      3.770675     3.766853     3.763031     3.759208     3.755386     3.751564     3.747742     3.743920     3.740098     3.736276
      3.732454     3.728632     3.724810     3.720988     3.717165     3.713343     3.709521     3.705699     3.701877     3.698055
      3.694233     3.690411     3.686589     3.682767     3.678945     3.675122     3.671300     3.667478     3.663656     3.659834
      3.656012     3.652190     3.648368     3.644546     3.640724     3.636902     3.633080     3.629257     3.625435     3.621613
      3.617791     3.613969     3.610147     3.606325     3.602503     3.598681     3.594859     3.591037     3.587214     3.583392
      3.579570     3.575748     3.571926     3.568104     3.564282     3.560460     3.556638     3.552816     3.548994     3.545171
      3.541349     3.537527     3.533705     3.529883     3.526061     3.522239     3.518417     3.514595     3.510773     3.506951
      3.503129     3.499306     3.495484     3.491662     3.487840     3.484018     3.480196     3.476374     3.472552     3.468730
      3.464908     3.461086     3.457263     3.453441     3.449619     3.445797     3.441975     3.438153     3.434331     3.430509
      3.426687     3.422865     3.419043     3.415220     3.411398     3.407576     3.403754     3.399932     3.396110     3.392288
      3.388466     3.384644     3.380822     3.377000     3.373178     3.369355     3.365533     3.361711     3.357889     3.354067
      3.350245     3.346423     3.342601     3.338779     3.334957     3.331135     3.327312     3.323490     3.319668     3.315846
      3.312024     3.308202     3.304380     3.300558     3.296736     3.292914     3.289092     3.285269     3.281447     3.277625
      3.273803     3.269981     3.266159     3.262337     3.258515     3.254693     3.250871     3.247049     3.243227     3.239404
      3.235582     3.231760     3.227938     3.224116     3.220294     3.216472     3.212650     3.208828     3.205006     3.201184
      3.197361     3.193539     3.189717     3.185895     3.182073     3.178251     3.174429     3.170607     3.166785     3.162963
      3.159141     3.155318     3.151496     3.147674     3.143852     3.140030     3.136208     3.132386     3.128564     3.124742
      3.120920     3.117098     3.113276     3.109453     3.105631     3.101809     3.097987     3.094165     3.090343     3.086521
      3.082699     3.078877     3.075055     3.071233     3.067410     3.063588     3.059766     3.055944     3.052122     3.048300
      3.044478     3.040656     3.036834     3.033012     3.029190     3.025367     3.021545     3.017723     3.013901     3.010079
      3.006257     3.002435     2.998613     2.994791     2.990969     2.987147     2.983325     2.979502     2.975680     2.971858
      2.968036     2.964214     2.960392     2.956570     2.952748     2.948926     2.945104     2.941282     2.937459     2.933637
      2.929815     2.925993     2.922171     2.918349     2.914527     2.910705     2.906883     2.903061     2.899239     2.895416
      2.891594     2.887772     2.883950     2.880128     2.876306     2.872484     2.868662     2.864840     2.861018     2.857196
      2.853374     2.849551     2.845729     2.841907     2.838085     2.834263     2.830441     2.826619     2.822797     2.818975
      2.815153     2.811331     2.807508     2.803686     2.799864     2.796042     2.792220     2.788398     2.784576     2.780754
      2.776932     2.773110     2.769288     2.765465     2.761643     2.757821     2.753999     2.750177     2.746355     2.742533
      2.738711     2.734889     2.731067     2.727245     2.723423     2.719600     2.715778     2.711956     2.708134     2.704312
      2.700490     2.696668     2.692846     2.689024     2.685202     2.681380     2.677557     2.673735     2.669913     2.666091
      2.662269     2.658447     2.654625     2.650803     2.646981     2.643159     2.639337     2.635514     2.631692     2.627870
      2.624048     2.620226     2.616404     2.612582     2.608760     2.604938     2.601116     2.597294     2.593472     2.589649
      2.585827     2.582005     2.578183     2.574361     2.570539     2.566717     2.562895     2.559073     2.555251     2.551429
      2.547606     2.543784     2.539962     2.536140     2.532318     2.528496     2.524674     2.520852     2.517030     2.513208
      2.509386     2.505563     2.501741     2.497919     2.494097     2.490275     2.486453     2.482631     2.478809     2.474987
      2.471165     2.467343     2.463521     2.459698     2.455876     2.452054     2.448232     2.444410     2.440588     2.436766
      2.432944     2.429122     2.425300     2.421478     2.417655     2.413833     2.410011     2.406189     2.402367     2.398545
      2.394723     2.390901     2.387079     2.383257     2.379435     2.375612     2.371790     2.367968     2.364146     2.360324
      2.356502     2.352680     2.348858     2.345036     2.341214     2.337392     2.333570     2.329747     2.325925     2.322103
      2.318281     2.314459     2.310637     2.306815     2.302993     2.299171     2.295349     2.291527     2.287704     2.283882
      2.280060     2.276238     2.272416     2.268594     2.264772     2.260950     2.257128     2.253306     2.249484     2.245661
      2.241839     2.238017     2.234195     2.230373     2.226551     2.222729     2.218907     2.215085     2.211263     2.207441
      2.203619     2.199796     2.195974     2.192152     2.188330     2.184508     2.180686     2.176864     2.173042     2.169220
      2.165398     2.161576     2.157753     2.153931     2.150109     2.146287     2.142465     2.138643     2.134821     2.130999
      2.127177     2.123355     2.119533     2.115710     2.111888     2.108066     2.104244     2.100422     2.096600     2.092778
      2.088956     2.085134     2.081312     2.077490     2.073668     2.069845     2.066023     2.062201     2.058379     2.054557
      2.050735     2.046913     2.043091     2.039269     2.035447     2.031625     2.027802     2.023980     2.020158     2.016336
      2.012514     2.008692     2.004870     2.001048     1.997226     1.993404     1.989582     1.985759     1.981937     1.978115
      1.974293     1.970471     1.966649     1.962827     1.959005     1.955183     1.951361     1.947539     1.943717     1.939894
      1.936072     1.932250     1.928428     1.924606     1.920784     1.916962     1.913140     1.909318     1.905496     1.901674
      1.897851     1.894029     1.890207     1.886385     1.882563     1.878741     1.874919     1.871097     1.867275     1.863453
      1.859631     1.855808     1.851986     1.848164     1.844342     1.840520     1.836698     1.832876     1.829054     1.825232
      1.821410     1.817588     1.813766     1.809943     1.806121     1.802299     1.798477     1.794655     1.790833     1.787011
      1.783189     1.779367     1.775545     1.771723     1.767900     1.764078     1.760256     1.756434     1.752612     1.748790
      1.744968     1.741146     1.737324     1.733502     1.729680     1.725857     1.722035     1.718213     1.714391     1.710569
      1.706747     1.702925     1.699103     1.695281     1.691459     1.687637     1.683815     1.679992     1.676170     1.672348
      1.668526     1.664704     1.660882     1.657060     1.653238     1.649416     1.645594     1.641772     1.637949     1.634127
      1.630305     1.626483     1.622661     1.618839     1.615017     1.611195     1.607373     1.603551     1.599729     1.595906
      1.592084     1.588262     1.584440     1.580618     1.576796     1.572974     1.569152     1.565330     1.561508     1.557686
      1.553864     1.550041     1.546219     1.542397     1.538575     1.534753     1.530931     1.527109     1.523287     1.519465
      1.515643     1.511821     1.507998     1.504176     1.500354     1.496532     1.492710     1.488888     1.485066     1.481244
      1.477422     1.473600     1.469778     1.465955     1.462133     1.458311     1.454489     1.450667     1.446845     1.443023
      1.439201     1.435379     1.431557     1.427735     1.423913     1.420090     1.416268     1.412446     1.408624     1.404802
      1.400980     1.397158     1.393336     1.389514     1.385692     1.381870     1.378047     1.374225     1.370403     1.366581
      1.362759     1.358937     1.355115     1.351293     1.347471     1.343649     1.339827     1.336004     1.332182     1.328360
      1.324538     1.320716     1.316894     1.313072     1.309250     1.305428     1.301606     1.297784     1.293962     1.290139
      1.286317     1.282495     1.278673     1.274851     1.271029     1.267207     1.263385     1.259563     1.255741     1.251919
      1.248096     1.244274     1.240452     1.236630     1.232808     1.228986     1.225164     1.221342     1.217520     1.213698
      1.209876     1.206053     1.202231     1.198409     1.194587     1.190765     1.186943     1.183121     1.179299     1.175477
      1.171655     1.167833     1.164011     1.160188     1.156366     1.152544     1.148722     1.144900     1.141078     1.137256
      1.133434     1.129612     1.125790     1.121968     1.118145     1.114323     1.110501     1.106679     1.102857     1.099035
      1.095213     1.091391     1.087569     1.083747     1.079925     1.076102     1.072280     1.068458     1.064636     1.060814
      1.056992     1.053170     1.049348     1.045526     1.041704     1.037882     1.034060     1.030237     1.026415     1.022593
      1.018771     1.014949     1.011127     1.007305     1.003483     0.999661     0.995839     0.992016     0.988194     0.984372
      0.980550     0.976728     0.972906     0.969083     0.965261     0.961439     0.957617     0.953795     0.949973     0.946151
      0.942328     0.938506     0.934684     0.930862     0.927040     0.923218     0.919396     0.915573     0.911751     0.907929
      0.904107     0.900285     0.896463     0.892641     0.888818     0.884996     0.881174     0.877352     0.873530     0.869708
      0.865885     0.862063     0.858241     0.854419     0.850597     0.846775     0.842953     0.839130     0.835308     0.831486
      0.827664     0.823842     0.820020     0.816198     0.812375     0.808553     0.804731     0.800909     0.797087     0.793265
      0.789443     0.785620     0.781798     0.777976     0.774154     0.770332     0.766510     0.762688     0.758865     0.755043
      0.751221     0.747399     0.743577     0.739755     0.735932     0.732110     0.728288     0.724466     0.720644     0.716822
      0.713000     0.709177     0.705355     0.701533     0.697711     0.693889     0.690067     0.686245     0.682422     0.678600
      0.674778     0.670956     0.667134     0.663312     0.659490     0.655667     0.651845     0.648023     0.644201     0.640379
      0.636557     0.632734     0.628912     0.625090     0.621268     0.617446     0.613624     0.609802     0.605979     0.602157
      0.598335     0.594513     0.590691     0.586869     0.583047     0.579224     0.575402     0.571580     0.567758     0.563936
      0.560114     0.556292     0.552469     0.548647     0.544825     0.541003     0.537181     0.533359     0.529536     0.525714
      0.521892     0.518070     0.514248     0.510426     0.506604     0.502781     0.498959
 NY phased data points follow
   4.36189E-01  4.13960E-01  4.73516E-01  4.15977E-01  4.24948E-01  4.44998E-01  4.59580E-01  4.38504E-01  4.38181E-01  4.25171E-01
   4.61786E-01  4.37394E-01  4.70225E-01  4.83581E-01  4.63410E-01  5.19621E-01  6.08881E-01  5.92736E-01  6.19845E-01  6.99926E-01
   7.62964E-01  8.17907E-01  8.62075E-01  9.73579E-01  1.02108E+00  1.09615E+00  1.12139E+00  1.23417E+00  1.27192E+00  1.28415E+00
   1.29483E+00  1.30336E+00  1.24686E+00  1.21810E+00  1.14358E+00  1.06920E+00  1.02149E+00  9.47404E-01  8.62915E-01  8.27160E-01
   7.93607E-01  7.37495E-01  7.16222E-01  6.68261E-01  6.87872E-01  6.12299E-01  6.57812E-01  6.50993E-01  6.09911E-01  6.37805E-01
   6.08237E-01  6.24758E-01  5.77356E-01  6.28403E-01  6.04230E-01  6.08541E-01  6.77677E-01  7.03470E-01  7.01180E-01  7.19199E-01
   7.16705E-01  7.37386E-01  7.23618E-01  7.73728E-01  7.71013E-01  7.88031E-01  8.06585E-01  8.44512E-01  8.46900E-01  8.72566E-01
   8.86795E-01  8.89701E-01  8.92310E-01  9.10150E-01  8.86746E-01  8.32013E-01  8.31502E-01  7.85290E-01  7.81218E-01  7.85975E-01
   7.61037E-01  7.37021E-01  7.23572E-01  7.52831E-01  7.40954E-01  7.22033E-01  7.21780E-01  6.89290E-01  6.86997E-01  6.40896E-01
   6.42913E-01  6.37785E-01  6.26170E-01  6.03007E-01  6.04896E-01  6.17221E-01  6.18354E-01  6.54676E-01  7.38597E-01  7.68534E-01
   8.25293E-01  8.61561E-01  8.82897E-01  8.68471E-01  8.59268E-01  8.34760E-01  7.71347E-01  6.97633E-01  6.61468E-01  6.13139E-01
   5.68575E-01  5.47693E-01  5.34681E-01  5.05039E-01  4.90663E-01  5.15165E-01  5.69939E-01  5.84266E-01  6.80850E-01  7.48911E-01
   8.22842E-01  9.17148E-01  9.44707E-01  9.69032E-01  9.99268E-01  9.83602E-01  9.85494E-01  9.81177E-01  9.00291E-01  8.88480E-01
   8.10955E-01  7.68834E-01  6.80871E-01  6.35227E-01  5.85303E-01  5.34858E-01  5.49574E-01  5.07661E-01  5.14114E-01  4.49745E-01
   4.29877E-01  4.44271E-01  4.36523E-01  4.57520E-01  4.35720E-01  4.78020E-01  4.64644E-01  4.82293E-01  4.83965E-01  4.89232E-01
   4.77663E-01  4.94478E-01  4.66209E-01  4.67919E-01  4.63825E-01  4.60345E-01  4.80749E-01  4.56023E-01  4.62230E-01  4.34480E-01
   3.92661E-01  4.00298E-01  4.27550E-01  3.84506E-01  3.71471E-01  3.54922E-01  3.60105E-01  3.27432E-01  3.42138E-01  3.55072E-01
   3.51220E-01  3.44393E-01  3.76129E-01  3.85544E-01  3.86930E-01  3.98489E-01  4.11848E-01  4.25527E-01  4.19109E-01  4.17735E-01
   3.88571E-01  3.83681E-01  3.32884E-01  3.76699E-01  3.06144E-01  2.99668E-01  3.29428E-01  2.78924E-01  3.20913E-01  2.84820E-01
   3.51885E-01  3.44880E-01  4.04557E-01  3.98356E-01  4.31832E-01  4.69720E-01  4.71588E-01  5.16434E-01  5.44769E-01  5.23917E-01
   5.49866E-01  5.67514E-01  5.46091E-01  5.78898E-01  5.87913E-01  6.20649E-01  6.57416E-01  6.52918E-01  7.02691E-01  7.87792E-01
   8.92820E-01  1.00410E+00  1.14936E+00  1.13980E+00  1.24893E+00  1.24892E+00  1.17373E+00  1.12467E+00  1.03190E+00  9.72706E-01
   8.92144E-01  8.08480E-01  7.49138E-01  6.55294E-01  6.44113E-01  5.54410E-01  5.33621E-01  4.93280E-01  4.83291E-01  4.77098E-01
   4.31940E-01  4.16807E-01  4.00844E-01  3.70210E-01  3.44746E-01  3.66118E-01  3.95648E-01  3.61162E-01  3.37657E-01  3.45947E-01
   3.36199E-01  3.71441E-01  3.75729E-01  3.75209E-01  3.36877E-01  3.49467E-01  3.64308E-01  3.74011E-01  3.82365E-01  4.38866E-01
   4.16149E-01  4.27314E-01  5.11465E-01  5.45925E-01  6.07845E-01  7.00638E-01  8.30744E-01  1.02458E+00  1.20918E+00  1.39334E+00
   1.54995E+00  1.64832E+00  1.74672E+00  1.69703E+00  1.61020E+00  1.50819E+00  1.37818E+00  1.28047E+00  1.13383E+00  9.92683E-01
   9.04895E-01  7.98789E-01  7.35107E-01  6.81436E-01  5.90713E-01  5.81494E-01  5.08063E-01  4.70376E-01  4.32612E-01  4.24120E-01
   4.03085E-01  3.70882E-01  3.57403E-01  3.43558E-01  3.26475E-01  3.09570E-01  3.58559E-01  3.10798E-01  3.53296E-01  3.09309E-01
   3.14099E-01  3.11223E-01  3.31685E-01  2.96362E-01  2.77599E-01  2.64489E-01  2.51521E-01  2.33131E-01  2.58165E-01  2.33547E-01
   2.55980E-01  2.64446E-01  2.53090E-01  2.49802E-01  2.18153E-01  2.11110E-01  2.03515E-01  2.31061E-01  2.10129E-01  2.09395E-01
   1.85612E-01  1.93127E-01  2.18958E-01  1.96683E-01  2.12722E-01  2.29595E-01  1.84514E-01  2.02861E-01  2.13607E-01  1.92950E-01
   2.72619E-01  2.66094E-01  2.40608E-01  2.65508E-01  2.93177E-01  3.28858E-01  3.32830E-01  3.40361E-01  3.31996E-01  2.83031E-01
   3.03892E-01  2.54073E-01  2.86297E-01  2.78374E-01  3.03349E-01  2.75956E-01  3.27889E-01  3.24120E-01  3.09824E-01  3.08882E-01
   3.00056E-01  2.74797E-01  2.31273E-01  2.08889E-01  2.08432E-01  1.98343E-01  1.79066E-01  1.63425E-01  1.73663E-01  1.73863E-01
   1.37036E-01  1.82387E-01  1.29835E-01  1.75919E-01  1.75554E-01  2.22098E-01  2.12105E-01  2.04495E-01  2.54229E-01  2.73833E-01
   2.98109E-01  3.21054E-01  3.13651E-01  3.11203E-01  3.38744E-01  3.28668E-01  3.25954E-01  3.31111E-01  3.66120E-01  3.95045E-01
   4.05215E-01  4.04695E-01  4.50245E-01  4.13032E-01  4.54220E-01  4.34060E-01  4.30959E-01  4.42380E-01  4.23707E-01  3.92133E-01
   4.12282E-01  3.85139E-01  3.66793E-01  3.54840E-01  3.36247E-01  3.28934E-01  3.15884E-01  2.82964E-01  3.18374E-01  2.79491E-01
   2.99913E-01  2.66997E-01  2.67014E-01  2.84132E-01  2.85041E-01  2.64032E-01  2.82692E-01  3.35714E-01  3.14152E-01  3.21453E-01
   3.92009E-01  4.08928E-01  4.46314E-01  4.35370E-01  4.46769E-01  4.51855E-01  4.12344E-01  4.59716E-01  4.57985E-01  5.03621E-01
   4.89048E-01  5.39995E-01  5.61207E-01  5.96356E-01  6.28292E-01  5.74144E-01  5.93789E-01  5.68652E-01  5.51339E-01  5.52259E-01
   5.44172E-01  5.37390E-01  5.26456E-01  4.99100E-01  4.72856E-01  4.49804E-01  4.34250E-01  4.15031E-01  4.13225E-01  4.53385E-01
   4.73000E-01  5.19416E-01  5.57797E-01  6.74964E-01  7.18544E-01  7.71275E-01  8.54680E-01  8.57961E-01  8.90836E-01  8.81456E-01
   8.73206E-01  8.06279E-01  7.52015E-01  6.76161E-01  6.44495E-01  5.80002E-01  5.37321E-01  5.13892E-01  5.24757E-01  4.95917E-01
   5.13882E-01  5.06304E-01  5.75485E-01  6.04397E-01  6.18457E-01  6.19142E-01  6.58693E-01  6.56543E-01  6.42924E-01  6.36112E-01
   5.84995E-01  5.96650E-01  6.21870E-01  5.59668E-01  5.65787E-01  5.70040E-01  5.35445E-01  5.18843E-01  5.44707E-01  4.97642E-01
   5.04172E-01  5.07701E-01  4.98886E-01  4.92331E-01  4.80846E-01  4.70981E-01  4.33920E-01  5.01787E-01  4.66641E-01  5.04596E-01
   5.12797E-01  5.09788E-01  5.10797E-01  5.14003E-01  4.95730E-01  5.35333E-01  5.28504E-01  5.09343E-01  5.02442E-01  5.01905E-01
   4.94287E-01  4.95656E-01  4.68447E-01  4.91618E-01  5.20464E-01  5.12782E-01  5.78952E-01  6.04078E-01  6.25454E-01  6.52224E-01
   6.75016E-01  7.07552E-01  7.24855E-01  7.20381E-01  7.53361E-01  7.45232E-01  7.49169E-01  7.22448E-01  7.62789E-01  7.59124E-01
   7.95304E-01  7.99975E-01  7.95616E-01  8.49456E-01  8.55594E-01  8.81253E-01  9.46581E-01  9.85137E-01  1.00110E+00  1.09313E+00
   1.14911E+00  1.22548E+00  1.33888E+00  1.57905E+00  1.88821E+00  2.19330E+00  2.51043E+00  2.69478E+00  2.75690E+00  2.66838E+00
   2.53437E+00  2.27539E+00  2.04464E+00  1.79087E+00  1.57688E+00  1.34297E+00  1.16641E+00  1.00945E+00  9.08697E-01  8.30587E-01
   7.47850E-01  7.07313E-01  6.21181E-01  5.71859E-01  5.35643E-01  5.03886E-01  4.42404E-01  4.02796E-01  3.90575E-01  3.81059E-01
   3.45048E-01  3.55291E-01  3.11488E-01  2.95206E-01  3.01256E-01  3.13062E-01  3.18814E-01  2.89532E-01  2.68568E-01  2.80154E-01
   2.74777E-01  2.76560E-01  2.25637E-01  2.44697E-01  2.52635E-01  2.12598E-01  2.61781E-01  2.31453E-01  2.17510E-01  2.26046E-01
   2.36747E-01  2.12031E-01  2.28832E-01  2.03015E-01  2.22076E-01  2.11960E-01  1.92165E-01  1.59095E-01  2.01150E-01  2.04071E-01
   2.10275E-01  1.93651E-01  2.11469E-01  1.79672E-01  1.60358E-01  1.79739E-01  2.07798E-01  1.87238E-01  1.75888E-01  2.08066E-01
   2.00017E-01  1.97377E-01  2.02459E-01  1.91901E-01  1.72627E-01  1.86575E-01  2.08226E-01  2.09124E-01  1.76066E-01  1.95757E-01
   1.72795E-01  1.54051E-01  1.85041E-01  1.52371E-01  1.98552E-01  1.84685E-01  2.04566E-01  2.01677E-01  1.97378E-01  1.65096E-01
   1.86412E-01  1.91259E-01  1.90722E-01  2.18338E-01  1.59354E-01  2.16939E-01  2.02728E-01  2.18797E-01  1.96726E-01  2.04001E-01
   2.21314E-01  2.07054E-01  2.30417E-01  2.30772E-01  2.14865E-01  2.44448E-01  2.19551E-01  2.43253E-01  2.23273E-01  2.80179E-01
   2.43694E-01  2.09211E-01  2.35647E-01  1.88255E-01  2.49556E-01  2.09727E-01  1.85760E-01  2.23117E-01  1.98320E-01  1.99430E-01
   1.91948E-01  1.43841E-01  1.91295E-01  1.99357E-01  1.86881E-01  1.56251E-01  1.77362E-01  2.09484E-01  1.91633E-01  1.73284E-01
   1.88228E-01  1.34848E-01  1.64477E-01  1.35776E-01  1.76916E-01  1.56422E-01  1.52737E-01  1.78905E-01  1.45486E-01  1.87656E-01
   1.87068E-01  1.76160E-01  1.61497E-01  1.65779E-01  1.34953E-01  1.83616E-01  1.46475E-01  1.69137E-01  1.35012E-01  2.03145E-01
   1.85566E-01  1.78498E-01  1.81572E-01  1.51711E-01  1.75024E-01  1.91088E-01  1.83334E-01  1.89853E-01  2.27572E-01  2.22130E-01
   2.13786E-01  1.96957E-01  2.16091E-01  2.39473E-01  2.48230E-01  2.20245E-01  2.33998E-01  2.14801E-01  2.25943E-01  2.49770E-01
   2.43158E-01  2.11182E-01  2.28223E-01  2.46171E-01  2.53251E-01  2.33854E-01  2.18426E-01  2.49936E-01  2.55064E-01  2.79724E-01
   2.28755E-01  2.74773E-01  2.51325E-01  1.99288E-01  1.81936E-01  1.97615E-01  1.86497E-01  1.59121E-01  1.42542E-01  1.06961E-01
   1.44963E-01  1.74710E-01  1.52726E-01  1.67924E-01  1.68755E-01  1.64734E-01  1.63275E-01  1.28227E-01  1.67980E-01  1.58453E-01
   1.63320E-01  1.16407E-01  1.50970E-01  9.39233E-02  8.63672E-02  9.71997E-02  1.05421E-01  1.01993E-01  5.81071E-02  6.10961E-02
   8.80243E-02  9.89415E-02  7.79901E-02  6.31785E-02  8.17917E-02  7.31186E-02  5.55719E-02  7.71360E-02  5.47835E-02  6.72702E-02
   5.60268E-02  4.11395E-02  3.97205E-02  1.18214E-02  1.18598E-02  6.66151E-02  2.67083E-02  2.35719E-02  2.64821E-02  2.74693E-02
   8.48889E-03 -4.09064E-02 -8.33366E-03 -2.89369E-02 -1.91875E-02 -3.97277E-02 -3.23947E-02 -4.29063E-02 -6.20989E-02 -5.82722E-02
  -4.55194E-02 -8.91545E-02 -8.87217E-02 -8.89884E-02 -6.14917E-02 -8.69968E-02 -6.06756E-02 -9.73402E-02 -1.30931E-01 -7.33845E-02
  -9.75012E-02 -5.68828E-02 -5.82608E-02 -6.95045E-02 -8.43290E-02 -7.81490E-02 -7.49522E-02 -7.87728E-02 -1.17764E-01 -9.84556E-02
  -8.63152E-02 -7.86848E-02 -6.26006E-02 -5.50893E-02 -5.67881E-02 -2.15819E-02 -6.42972E-02 -6.50802E-02 -3.24877E-02 -2.30273E-02
  -5.38881E-02 -3.40283E-02 -2.62724E-02 -1.29782E-02 -2.05515E-04  1.95822E-02  3.66255E-03  6.32723E-03  2.90141E-02 -2.00587E-03
   3.70057E-02  4.49729E-02  2.68420E-02  3.07084E-02  6.96564E-02  5.76371E-02  6.93104E-02  5.88316E-02  6.98144E-02  6.61147E-02
   7.86954E-02  1.00564E-01  7.86920E-02  9.51638E-02  8.21586E-02  1.04483E-01  1.10438E-01  1.25121E-01  1.00909E-01  1.23906E-01
   1.17318E-01  1.29037E-01  1.03005E-01  1.08898E-01  1.05931E-01  1.16798E-01  1.15635E-01  1.01594E-01  1.10104E-01  9.39264E-02
   9.33996E-02  8.99063E-02  1.06156E-01  1.07241E-01  7.56198E-02  7.96748E-02  4.20203E-02  5.89623E-02  3.54203E-02  5.16079E-02
   1.21717E-02  4.17537E-02  1.88962E-02  4.41351E-02  3.64492E-02  1.42375E-02  2.57878E-03 -3.64932E-02 -8.56516E-03 -1.82099E-02
  -2.60938E-02 -2.02502E-02 -1.49412E-02 -4.01461E-02 -9.66567E-03 -5.76138E-02 -2.00955E-02 -2.49037E-02 -4.85827E-02 -4.35508E-02
  -5.25052E-02 -3.37667E-02 -2.85731E-02 -2.91172E-02 -4.84942E-02 -4.38391E-02 -3.43033E-02 -2.03286E-02 -7.34010E-02 -2.97386E-02
  -4.06917E-02 -5.26633E-02 -6.11134E-02 -2.29357E-02 -2.30874E-02 -3.25040E-02 -6.98495E-02 -4.55520E-02 -4.40381E-02 -3.64835E-02
  -4.57644E-02 -4.80004E-02 -3.43750E-02 -5.82959E-02 -2.98198E-02 -3.97707E-02 -5.46205E-02 -3.83250E-02 -3.89069E-02 -3.82902E-02
  -2.42059E-02 -6.86475E-02 -6.40430E-02 -6.00207E-02 -2.11841E-02 -5.31812E-02 -5.98470E-02 -3.50486E-02 -4.02628E-02 -4.20003E-02
  -4.52040E-02 -5.62765E-02 -4.54169E-02 -4.47761E-02 -3.50191E-02 -2.89181E-02 -3.23484E-02 -4.17166E-02 -2.67963E-02 -2.51252E-02
  -5.10032E-02 -3.81051E-02 -4.58652E-02 -2.18948E-02 -3.54765E-02 -1.38402E-02 -4.20965E-02
 NY points of the fit to the data follow
   4.90342E-01  4.75311E-01  4.62807E-01  4.56833E-01  4.51664E-01  4.43123E-01  4.35133E-01  4.29128E-01  4.25466E-01  4.27410E-01
   4.32212E-01  4.39292E-01  4.51074E-01  4.68404E-01  4.90435E-01  5.16665E-01  5.47819E-01  5.81571E-01  6.15942E-01  6.66066E-01
   7.38495E-01  8.19908E-01  9.06154E-01  9.89984E-01  1.05630E+00  1.10386E+00  1.15452E+00  1.20611E+00  1.25029E+00  1.29104E+00
   1.31586E+00  1.31360E+00  1.27790E+00  1.22477E+00  1.15881E+00  1.08829E+00  1.02662E+00  9.64005E-01  8.98383E-01  8.34373E-01
   7.79028E-01  7.31875E-01  6.94314E-01  6.64090E-01  6.36659E-01  6.13197E-01  5.97349E-01  5.89226E-01  5.87943E-01  5.90530E-01
   5.96596E-01  6.05552E-01  6.13253E-01  6.19864E-01  6.26466E-01  6.35978E-01  6.49529E-01  6.65343E-01  6.80899E-01  6.93111E-01
   7.04352E-01  7.19368E-01  7.38099E-01  7.60940E-01  7.87431E-01  8.13135E-01  8.34350E-01  8.52104E-01  8.63929E-01  8.69923E-01
   8.78403E-01  8.85266E-01  8.87802E-01  8.82881E-01  8.67995E-01  8.46229E-01  8.21554E-01  8.02881E-01  7.87598E-01  7.73627E-01
   7.64127E-01  7.59069E-01  7.54279E-01  7.51156E-01  7.48269E-01  7.40964E-01  7.30296E-01  7.14896E-01  6.94144E-01  6.70254E-01
   6.48836E-01  6.31969E-01  6.21392E-01  6.17755E-01  6.19997E-01  6.29966E-01  6.49570E-01  6.82085E-01  7.26823E-01  7.78938E-01
   8.28810E-01  8.64467E-01  8.79092E-01  8.70343E-01  8.39732E-01  7.93609E-01  7.39756E-01  6.84587E-01  6.31531E-01  5.85055E-01
   5.46670E-01  5.18125E-01  5.00587E-01  4.90566E-01  4.89526E-01  5.05055E-01  5.42561E-01  5.96444E-01  6.65911E-01  7.47737E-01
   8.23933E-01  8.85703E-01  9.30325E-01  9.57438E-01  9.70251E-01  9.72272E-01  9.64999E-01  9.44705E-01  9.11772E-01  8.65310E-01
   8.13097E-01  7.59906E-01  7.08549E-01  6.61004E-01  6.13368E-01  5.75395E-01  5.45532E-01  5.23882E-01  5.12740E-01  5.08451E-01
   5.10498E-01  5.12888E-01  5.12454E-01  5.11210E-01  5.10651E-01  5.10385E-01  5.09490E-01  5.06200E-01  5.00967E-01  4.91991E-01
   4.80404E-01  4.67615E-01  4.54050E-01  4.42431E-01  4.32339E-01  4.25829E-01  4.20992E-01  4.16424E-01  4.12106E-01  4.05580E-01
   3.97566E-01  3.88611E-01  3.78525E-01  3.68923E-01  3.62335E-01  3.58459E-01  3.57664E-01  3.59957E-01  3.64693E-01  3.71061E-01
   3.77734E-01  3.82820E-01  3.84214E-01  3.86366E-01  3.92714E-01  3.99689E-01  4.07083E-01  4.13739E-01  4.14727E-01  4.07353E-01
