 LCModel (Version 6.3-0D) Copyright: S.W. Provencher.          Ref.: Magn. Reson. Med. 30:672-679 (1993).                
 S05_PRESS_35_act
 Data of: Dept of Radiology, The Johns Hopkins University School of Medicine
 24-February-2020  09:51
 32 lines in following concentration table = NCONC+1
    Conc.  %SD /Cr+PCr  Metabolite                                         
    0.338 104%   0.251 Asc                                                 
    5.274  11%   3.908 Asp                                                 
    5.440   6%   4.031 Cr                                                  
    0.606  60%   0.449 GABA                                                
    1.917  10%   1.420 GPC                                                 
    1.451   8%   1.075 GSH                                                 
    2.063  24%   1.529 Gln                                                 
   14.070   5%  10.425 Glu                                                 
    8.434   4%   6.249 Ins                                                 
    0.727  44%   0.539 Lac                                                 
   15.803   2%  11.709 NAA                                                 
    0.334  72%   0.247 NAAG                                                
 1.34E-02 999% 9.9E-03 PCh                                                 
    5.357   6%   3.969 PCr                                                 
    3.782  17%   2.802 PE                                                  
    0.252  24%   0.187 Scyllo                                              
    2.584  20%   1.915 Tau                                                 
    0.000 999%   0.000 -CrCH2                                              
    1.930   3%   1.430 PCh+GPC                                             
   10.797   1%   8.000 Cr+PCr                                              
   16.136   2%  11.956 NAA+NAAG                                            
   16.133   5%  11.954 Glu+Gln                                             
   28.180  23%  20.879 Lip13a                                              
    0.000 999%   0.000 Lip13b                                              
    8.272  29%   6.129 Lip09                                               
   12.770  21%   9.461 MM09                                                
    6.125  12%   4.538 Lip20                                               
   10.538  25%   7.808 MM20                                                
    8.593  11%   6.367 MM12                                                
   15.357  31%  11.378 MM14                                                
   12.407  27%   9.192 MM17                                                
   6 lines in following misc. output table
  FWHM = 0.046 ppm    S/N =  56                                            
  Data shift =-0.004 ppm                                                   
  Ph: -20 deg      -4.8 deg/ppm                                            
  alphaB,S = 3.1E-02,   5.1E+01                                            
   26 spline knots.   Ns =11(1)                                            
  ( 4) 6 infls.   ( 2) 1 extrs.                                            
  917 points on ppm-axis = NY
      4.000000     3.996178     3.992356     3.988534     3.984712     3.980890     3.977067     3.973245     3.969423     3.965601
      3.961779     3.957957     3.954135     3.950313     3.946491     3.942669     3.938847     3.935024     3.931202     3.927380
      3.923558     3.919736     3.915914     3.912092     3.908270     3.904448     3.900626     3.896804     3.892982     3.889159
      3.885337     3.881515     3.877693     3.873871     3.870049     3.866227     3.862405     3.858583     3.854761     3.850939
      3.847116     3.843294     3.839472     3.835650     3.831828     3.828006     3.824184     3.820362     3.816540     3.812718
      3.808896     3.805073     3.801251     3.797429     3.793607     3.789785     3.785963     3.782141     3.778319     3.774497
      3.770675     3.766853     3.763031     3.759208     3.755386     3.751564     3.747742     3.743920     3.740098     3.736276
      3.732454     3.728632     3.724810     3.720988     3.717165     3.713343     3.709521     3.705699     3.701877     3.698055
      3.694233     3.690411     3.686589     3.682767     3.678945     3.675122     3.671300     3.667478     3.663656     3.659834
      3.656012     3.652190     3.648368     3.644546     3.640724     3.636902     3.633080     3.629257     3.625435     3.621613
      3.617791     3.613969     3.610147     3.606325     3.602503     3.598681     3.594859     3.591037     3.587214     3.583392
      3.579570     3.575748     3.571926     3.568104     3.564282     3.560460     3.556638     3.552816     3.548994     3.545171
      3.541349     3.537527     3.533705     3.529883     3.526061     3.522239     3.518417     3.514595     3.510773     3.506951
      3.503129     3.499306     3.495484     3.491662     3.487840     3.484018     3.480196     3.476374     3.472552     3.468730
      3.464908     3.461086     3.457263     3.453441     3.449619     3.445797     3.441975     3.438153     3.434331     3.430509
      3.426687     3.422865     3.419043     3.415220     3.411398     3.407576     3.403754     3.399932     3.396110     3.392288
      3.388466     3.384644     3.380822     3.377000     3.373178     3.369355     3.365533     3.361711     3.357889     3.354067
      3.350245     3.346423     3.342601     3.338779     3.334957     3.331135     3.327312     3.323490     3.319668     3.315846
      3.312024     3.308202     3.304380     3.300558     3.296736     3.292914     3.289092     3.285269     3.281447     3.277625
      3.273803     3.269981     3.266159     3.262337     3.258515     3.254693     3.250871     3.247049     3.243227     3.239404
      3.235582     3.231760     3.227938     3.224116     3.220294     3.216472     3.212650     3.208828     3.205006     3.201184
      3.197361     3.193539     3.189717     3.185895     3.182073     3.178251     3.174429     3.170607     3.166785     3.162963
      3.159141     3.155318     3.151496     3.147674     3.143852     3.140030     3.136208     3.132386     3.128564     3.124742
      3.120920     3.117098     3.113276     3.109453     3.105631     3.101809     3.097987     3.094165     3.090343     3.086521
      3.082699     3.078877     3.075055     3.071233     3.067410     3.063588     3.059766     3.055944     3.052122     3.048300
      3.044478     3.040656     3.036834     3.033012     3.029190     3.025367     3.021545     3.017723     3.013901     3.010079
      3.006257     3.002435     2.998613     2.994791     2.990969     2.987147     2.983325     2.979502     2.975680     2.971858
      2.968036     2.964214     2.960392     2.956570     2.952748     2.948926     2.945104     2.941282     2.937459     2.933637
      2.929815     2.925993     2.922171     2.918349     2.914527     2.910705     2.906883     2.903061     2.899239     2.895416
      2.891594     2.887772     2.883950     2.880128     2.876306     2.872484     2.868662     2.864840     2.861018     2.857196
      2.853374     2.849551     2.845729     2.841907     2.838085     2.834263     2.830441     2.826619     2.822797     2.818975
      2.815153     2.811331     2.807508     2.803686     2.799864     2.796042     2.792220     2.788398     2.784576     2.780754
      2.776932     2.773110     2.769288     2.765465     2.761643     2.757821     2.753999     2.750177     2.746355     2.742533
      2.738711     2.734889     2.731067     2.727245     2.723423     2.719600     2.715778     2.711956     2.708134     2.704312
      2.700490     2.696668     2.692846     2.689024     2.685202     2.681380     2.677557     2.673735     2.669913     2.666091
      2.662269     2.658447     2.654625     2.650803     2.646981     2.643159     2.639337     2.635514     2.631692     2.627870
      2.624048     2.620226     2.616404     2.612582     2.608760     2.604938     2.601116     2.597294     2.593472     2.589649
      2.585827     2.582005     2.578183     2.574361     2.570539     2.566717     2.562895     2.559073     2.555251     2.551429
      2.547606     2.543784     2.539962     2.536140     2.532318     2.528496     2.524674     2.520852     2.517030     2.513208
      2.509386     2.505563     2.501741     2.497919     2.494097     2.490275     2.486453     2.482631     2.478809     2.474987
      2.471165     2.467343     2.463521     2.459698     2.455876     2.452054     2.448232     2.444410     2.440588     2.436766
      2.432944     2.429122     2.425300     2.421478     2.417655     2.413833     2.410011     2.406189     2.402367     2.398545
      2.394723     2.390901     2.387079     2.383257     2.379435     2.375612     2.371790     2.367968     2.364146     2.360324
      2.356502     2.352680     2.348858     2.345036     2.341214     2.337392     2.333570     2.329747     2.325925     2.322103
      2.318281     2.314459     2.310637     2.306815     2.302993     2.299171     2.295349     2.291527     2.287704     2.283882
      2.280060     2.276238     2.272416     2.268594     2.264772     2.260950     2.257128     2.253306     2.249484     2.245661
      2.241839     2.238017     2.234195     2.230373     2.226551     2.222729     2.218907     2.215085     2.211263     2.207441
      2.203619     2.199796     2.195974     2.192152     2.188330     2.184508     2.180686     2.176864     2.173042     2.169220
      2.165398     2.161576     2.157753     2.153931     2.150109     2.146287     2.142465     2.138643     2.134821     2.130999
      2.127177     2.123355     2.119533     2.115710     2.111888     2.108066     2.104244     2.100422     2.096600     2.092778
      2.088956     2.085134     2.081312     2.077490     2.073668     2.069845     2.066023     2.062201     2.058379     2.054557
      2.050735     2.046913     2.043091     2.039269     2.035447     2.031625     2.027802     2.023980     2.020158     2.016336
      2.012514     2.008692     2.004870     2.001048     1.997226     1.993404     1.989582     1.985759     1.981937     1.978115
      1.974293     1.970471     1.966649     1.962827     1.959005     1.955183     1.951361     1.947539     1.943717     1.939894
      1.936072     1.932250     1.928428     1.924606     1.920784     1.916962     1.913140     1.909318     1.905496     1.901674
      1.897851     1.894029     1.890207     1.886385     1.882563     1.878741     1.874919     1.871097     1.867275     1.863453
      1.859631     1.855808     1.851986     1.848164     1.844342     1.840520     1.836698     1.832876     1.829054     1.825232
      1.821410     1.817588     1.813766     1.809943     1.806121     1.802299     1.798477     1.794655     1.790833     1.787011
      1.783189     1.779367     1.775545     1.771723     1.767900     1.764078     1.760256     1.756434     1.752612     1.748790
      1.744968     1.741146     1.737324     1.733502     1.729680     1.725857     1.722035     1.718213     1.714391     1.710569
      1.706747     1.702925     1.699103     1.695281     1.691459     1.687637     1.683815     1.679992     1.676170     1.672348
      1.668526     1.664704     1.660882     1.657060     1.653238     1.649416     1.645594     1.641772     1.637949     1.634127
      1.630305     1.626483     1.622661     1.618839     1.615017     1.611195     1.607373     1.603551     1.599729     1.595906
      1.592084     1.588262     1.584440     1.580618     1.576796     1.572974     1.569152     1.565330     1.561508     1.557686
      1.553864     1.550041     1.546219     1.542397     1.538575     1.534753     1.530931     1.527109     1.523287     1.519465
      1.515643     1.511821     1.507998     1.504176     1.500354     1.496532     1.492710     1.488888     1.485066     1.481244
      1.477422     1.473600     1.469778     1.465955     1.462133     1.458311     1.454489     1.450667     1.446845     1.443023
      1.439201     1.435379     1.431557     1.427735     1.423913     1.420090     1.416268     1.412446     1.408624     1.404802
      1.400980     1.397158     1.393336     1.389514     1.385692     1.381870     1.378047     1.374225     1.370403     1.366581
      1.362759     1.358937     1.355115     1.351293     1.347471     1.343649     1.339827     1.336004     1.332182     1.328360
      1.324538     1.320716     1.316894     1.313072     1.309250     1.305428     1.301606     1.297784     1.293962     1.290139
      1.286317     1.282495     1.278673     1.274851     1.271029     1.267207     1.263385     1.259563     1.255741     1.251919
      1.248096     1.244274     1.240452     1.236630     1.232808     1.228986     1.225164     1.221342     1.217520     1.213698
      1.209876     1.206053     1.202231     1.198409     1.194587     1.190765     1.186943     1.183121     1.179299     1.175477
      1.171655     1.167833     1.164011     1.160188     1.156366     1.152544     1.148722     1.144900     1.141078     1.137256
      1.133434     1.129612     1.125790     1.121968     1.118145     1.114323     1.110501     1.106679     1.102857     1.099035
      1.095213     1.091391     1.087569     1.083747     1.079925     1.076102     1.072280     1.068458     1.064636     1.060814
      1.056992     1.053170     1.049348     1.045526     1.041704     1.037882     1.034060     1.030237     1.026415     1.022593
      1.018771     1.014949     1.011127     1.007305     1.003483     0.999661     0.995839     0.992016     0.988194     0.984372
      0.980550     0.976728     0.972906     0.969083     0.965261     0.961439     0.957617     0.953795     0.949973     0.946151
      0.942328     0.938506     0.934684     0.930862     0.927040     0.923218     0.919396     0.915573     0.911751     0.907929
      0.904107     0.900285     0.896463     0.892641     0.888818     0.884996     0.881174     0.877352     0.873530     0.869708
      0.865885     0.862063     0.858241     0.854419     0.850597     0.846775     0.842953     0.839130     0.835308     0.831486
      0.827664     0.823842     0.820020     0.816198     0.812375     0.808553     0.804731     0.800909     0.797087     0.793265
      0.789443     0.785620     0.781798     0.777976     0.774154     0.770332     0.766510     0.762688     0.758865     0.755043
      0.751221     0.747399     0.743577     0.739755     0.735932     0.732110     0.728288     0.724466     0.720644     0.716822
      0.713000     0.709177     0.705355     0.701533     0.697711     0.693889     0.690067     0.686245     0.682422     0.678600
      0.674778     0.670956     0.667134     0.663312     0.659490     0.655667     0.651845     0.648023     0.644201     0.640379
      0.636557     0.632734     0.628912     0.625090     0.621268     0.617446     0.613624     0.609802     0.605979     0.602157
      0.598335     0.594513     0.590691     0.586869     0.583047     0.579224     0.575402     0.571580     0.567758     0.563936
      0.560114     0.556292     0.552469     0.548647     0.544825     0.541003     0.537181     0.533359     0.529536     0.525714
      0.521892     0.518070     0.514248     0.510426     0.506604     0.502781     0.498959
 NY phased data points follow
   6.15107E-01  5.79921E-01  6.07909E-01  6.16975E-01  5.91837E-01  6.03363E-01  5.95177E-01  5.95904E-01  6.21025E-01  6.24302E-01
   6.40255E-01  6.10965E-01  6.54402E-01  6.60585E-01  6.63893E-01  6.99755E-01  7.35349E-01  7.49270E-01  8.39410E-01  8.89043E-01
   9.01069E-01  9.65762E-01  1.04276E+00  1.09972E+00  1.17129E+00  1.21487E+00  1.31209E+00  1.33636E+00  1.39774E+00  1.40827E+00
   1.41758E+00  1.45459E+00  1.41865E+00  1.38158E+00  1.30830E+00  1.24423E+00  1.15942E+00  1.13985E+00  1.11525E+00  9.92372E-01
   9.69491E-01  9.11642E-01  8.69117E-01  8.36846E-01  7.82787E-01  7.48345E-01  7.14440E-01  7.17816E-01  7.10702E-01  6.88478E-01
   6.82423E-01  6.81401E-01  6.87437E-01  6.54938E-01  6.59498E-01  6.83693E-01  6.94357E-01  6.90531E-01  7.26592E-01  6.76014E-01
   7.36356E-01  7.57082E-01  7.46044E-01  7.61588E-01  7.71266E-01  7.70903E-01  7.87134E-01  8.36712E-01  8.29179E-01  8.78229E-01
   8.42147E-01  8.68329E-01  8.71928E-01  8.50766E-01  8.77168E-01  8.37273E-01  8.18556E-01  8.30344E-01  8.10968E-01  7.65142E-01
   7.83872E-01  7.85502E-01  7.60329E-01  7.52543E-01  7.57447E-01  7.55910E-01  7.48850E-01  7.13462E-01  7.04576E-01  6.77916E-01
   7.01119E-01  6.57596E-01  6.47031E-01  6.67804E-01  6.51249E-01  6.92706E-01  6.91471E-01  6.76189E-01  6.98880E-01  7.40101E-01
   7.81680E-01  7.76416E-01  7.88295E-01  7.98470E-01  7.74150E-01  7.64805E-01  7.20041E-01  6.91384E-01  6.75636E-01  6.45799E-01
   6.01478E-01  5.55839E-01  5.47545E-01  5.70529E-01  5.46330E-01  5.76167E-01  5.71310E-01  6.03407E-01  6.39247E-01  6.97958E-01
   7.42741E-01  7.73049E-01  8.10468E-01  8.55927E-01  8.90699E-01  8.74850E-01  8.63619E-01  8.40994E-01  8.14386E-01  7.98283E-01
   7.46124E-01  7.31027E-01  6.61331E-01  6.55651E-01  6.17390E-01  5.78159E-01  5.34380E-01  5.08955E-01  4.88678E-01  4.64760E-01
   5.00013E-01  4.72222E-01  4.47021E-01  4.44607E-01  4.45779E-01  4.27961E-01  4.39546E-01  4.44934E-01  4.39941E-01  4.76857E-01
   4.80399E-01  4.65619E-01  4.56847E-01  4.73529E-01  4.52770E-01  4.55972E-01  4.58979E-01  4.68854E-01  4.61109E-01  4.29553E-01
   4.62741E-01  4.36791E-01  4.52278E-01  4.20771E-01  4.05944E-01  4.09185E-01  4.00788E-01  3.61127E-01  4.02780E-01  3.87650E-01
   3.96651E-01  3.79206E-01  3.90654E-01  3.94385E-01  4.00761E-01  4.37673E-01  3.97357E-01  4.25772E-01  3.86479E-01  4.09236E-01
   4.21257E-01  3.81688E-01  3.87687E-01  3.66209E-01  3.70374E-01  3.90818E-01  3.36130E-01  3.51691E-01  3.95206E-01  3.73286E-01
   3.90182E-01  3.74961E-01  4.26012E-01  4.51118E-01  4.47801E-01  5.25047E-01  5.22112E-01  5.07720E-01  5.30162E-01  5.36463E-01
   5.70599E-01  5.78097E-01  6.03603E-01  6.14013E-01  6.29065E-01  6.49031E-01  7.12435E-01  7.11099E-01  7.93702E-01  8.45402E-01
   9.12823E-01  9.96829E-01  1.08130E+00  1.13306E+00  1.15142E+00  1.16148E+00  1.14980E+00  1.14300E+00  1.08847E+00  1.05306E+00
   1.03007E+00  9.33577E-01  8.69141E-01  7.88125E-01  7.19695E-01  6.92150E-01  5.99102E-01  5.62539E-01  5.52646E-01  5.32651E-01
   5.07108E-01  4.64512E-01  4.45631E-01  4.44077E-01  4.20609E-01  4.13034E-01  4.36801E-01  4.07646E-01  3.57710E-01  3.80496E-01
   4.07729E-01  4.14179E-01  4.27377E-01  4.13700E-01  4.10954E-01  3.74840E-01  3.90226E-01  4.30543E-01  4.25414E-01  4.53638E-01
   4.41679E-01  4.87350E-01  5.38137E-01  6.02416E-01  6.77027E-01  7.65595E-01  8.95824E-01  1.01642E+00  1.17646E+00  1.28716E+00
   1.39847E+00  1.48487E+00  1.55498E+00  1.59840E+00  1.58366E+00  1.53167E+00  1.48219E+00  1.35699E+00  1.26211E+00  1.17099E+00
   1.03728E+00  9.71822E-01  8.78800E-01  7.78158E-01  6.92622E-01  6.29877E-01  5.87004E-01  5.60182E-01  5.12411E-01  5.18968E-01
   4.63915E-01  4.35198E-01  4.32154E-01  4.14609E-01  3.68981E-01  3.62708E-01  3.78607E-01  3.43933E-01  3.42999E-01  3.58181E-01
   3.24343E-01  3.25275E-01  3.04277E-01  3.39602E-01  3.05500E-01  2.81985E-01  3.31861E-01  2.91521E-01  2.95027E-01  3.12403E-01
   2.73979E-01  2.62306E-01  2.28103E-01  2.49390E-01  2.50938E-01  2.68034E-01  2.48322E-01  2.39429E-01  2.51335E-01  2.50066E-01
   2.54301E-01  2.38626E-01  2.54390E-01  2.41417E-01  2.55673E-01  2.37770E-01  2.28611E-01  2.76384E-01  2.44519E-01  2.63431E-01
   3.04820E-01  2.96173E-01  3.12189E-01  3.14551E-01  3.31861E-01  3.77578E-01  3.63499E-01  3.64366E-01  3.69695E-01  3.60478E-01
   3.80768E-01  3.78733E-01  3.61373E-01  3.92616E-01  3.45116E-01  3.71109E-01  3.84456E-01  3.78911E-01  3.97249E-01  3.74020E-01
   3.47159E-01  3.32781E-01  3.11605E-01  2.90108E-01  2.74687E-01  2.87064E-01  2.46991E-01  2.58463E-01  2.21668E-01  2.42430E-01
   2.23924E-01  2.16740E-01  2.32957E-01  2.35300E-01  2.57799E-01  2.63660E-01  2.70895E-01  3.05349E-01  3.16835E-01  3.39715E-01
   3.49449E-01  3.85933E-01  3.70841E-01  3.69205E-01  3.75590E-01  3.92415E-01  4.15464E-01  4.27191E-01  4.47916E-01  4.49912E-01
   4.82885E-01  5.22215E-01  5.07600E-01  5.14224E-01  5.23654E-01  5.05020E-01  5.08189E-01  5.43511E-01  4.91201E-01  4.80578E-01
   5.08438E-01  4.68689E-01  4.80305E-01  4.87795E-01  4.17038E-01  3.78483E-01  4.03128E-01  3.63240E-01  3.92171E-01  3.59157E-01
   3.70730E-01  3.44404E-01  3.27751E-01  3.47705E-01  3.66538E-01  3.61632E-01  4.01768E-01  3.79550E-01  4.35721E-01  4.23160E-01
   4.56785E-01  4.66438E-01  4.75459E-01  4.44177E-01  4.78220E-01  4.86931E-01  5.05559E-01  5.32354E-01  5.26500E-01  5.58146E-01
   5.82777E-01  6.09699E-01  6.17837E-01  5.92055E-01  6.20087E-01  6.23232E-01  6.48944E-01  6.51500E-01  6.22904E-01  6.06101E-01
   6.26063E-01  5.90343E-01  6.01238E-01  5.64342E-01  5.23576E-01  5.09708E-01  5.24222E-01  4.91639E-01  5.19187E-01  5.45690E-01
   5.59244E-01  6.10721E-01  6.47964E-01  6.98336E-01  7.29790E-01  7.76023E-01  8.40010E-01  8.87792E-01  8.96947E-01  8.82370E-01
   8.63134E-01  8.74986E-01  8.57210E-01  8.00202E-01  7.33707E-01  7.03437E-01  6.75481E-01  6.69157E-01  6.49909E-01  5.98242E-01
   6.43012E-01  6.43974E-01  6.64431E-01  6.57606E-01  6.68231E-01  6.90642E-01  6.85506E-01  7.26470E-01  7.30197E-01  7.28559E-01
   7.20204E-01  7.15655E-01  6.91361E-01  6.99103E-01  6.98763E-01  6.76610E-01  6.58757E-01  6.48656E-01  6.43881E-01  6.42474E-01
   6.28770E-01  6.12831E-01  6.09379E-01  6.02624E-01  6.45423E-01  6.15173E-01  6.02943E-01  5.87917E-01  6.46563E-01  6.29646E-01
   6.04813E-01  6.47434E-01  6.28986E-01  6.01798E-01  6.36411E-01  6.07234E-01  6.50093E-01  6.27692E-01  6.08239E-01  6.15129E-01
   6.18631E-01  6.39601E-01  6.23707E-01  6.38344E-01  6.24143E-01  6.42343E-01  7.00211E-01  6.90479E-01  7.54304E-01  7.54183E-01
   7.76839E-01  7.84458E-01  8.07171E-01  7.95912E-01  8.22216E-01  8.29457E-01  8.47224E-01  8.48424E-01  8.49362E-01  8.70273E-01
   8.64572E-01  9.04420E-01  8.99083E-01  9.36313E-01  9.26877E-01  9.70158E-01  9.88483E-01  1.05817E+00  1.12157E+00  1.19214E+00
   1.33226E+00  1.42559E+00  1.62032E+00  1.80025E+00  2.01200E+00  2.22305E+00  2.38984E+00  2.52799E+00  2.57812E+00  2.63020E+00
   2.64336E+00  2.52304E+00  2.38766E+00  2.18706E+00  2.01321E+00  1.76355E+00  1.59746E+00  1.40776E+00  1.23422E+00  1.09251E+00
   9.79647E-01  9.08132E-01  8.33534E-01  7.36464E-01  7.17084E-01  6.22951E-01  6.04968E-01  5.31443E-01  5.32755E-01  5.02515E-01
   4.66449E-01  4.36187E-01  4.42061E-01  4.02748E-01  3.70700E-01  3.62916E-01  3.45736E-01  3.65987E-01  3.59150E-01  3.47757E-01
   3.30887E-01  3.53776E-01  3.49401E-01  2.80967E-01  3.31582E-01  3.13306E-01  2.98224E-01  3.12292E-01  2.78383E-01  2.89554E-01
   2.84329E-01  3.02419E-01  3.04474E-01  2.82787E-01  2.83476E-01  2.94927E-01  2.75096E-01  2.95842E-01  2.76999E-01  3.17917E-01
   2.85349E-01  2.98954E-01  2.88899E-01  2.83263E-01  2.51558E-01  2.98664E-01  2.67139E-01  2.52062E-01  2.97204E-01  2.85066E-01
   2.50589E-01  2.81365E-01  2.98947E-01  2.79148E-01  2.44398E-01  3.02727E-01  2.66914E-01  2.65377E-01  2.71565E-01  2.51681E-01
   2.50096E-01  2.51480E-01  2.33692E-01  2.65982E-01  2.59785E-01  2.44824E-01  2.53211E-01  2.56629E-01  2.87962E-01  2.64755E-01
   2.80298E-01  2.47674E-01  2.38392E-01  2.62128E-01  2.76147E-01  2.58210E-01  2.98600E-01  2.73884E-01  2.56933E-01  2.67549E-01
   2.67052E-01  2.56599E-01  2.69361E-01  2.86867E-01  2.59651E-01  2.64431E-01  2.84179E-01  2.79526E-01  2.66842E-01  2.78430E-01
   2.79940E-01  2.83391E-01  2.79339E-01  2.86207E-01  2.87403E-01  2.46180E-01  2.57543E-01  2.68661E-01  2.66218E-01  2.53211E-01
   2.42869E-01  2.53185E-01  2.66143E-01  2.49165E-01  2.47435E-01  2.43462E-01  2.32914E-01  2.58551E-01  2.47030E-01  2.25698E-01
   2.40909E-01  2.43857E-01  2.42910E-01  2.17683E-01  2.61426E-01  2.21970E-01  2.17810E-01  2.32448E-01  2.13807E-01  2.28359E-01
   2.29475E-01  2.17710E-01  2.41030E-01  2.48833E-01  1.88522E-01  2.49308E-01  2.26022E-01  2.43334E-01  2.21713E-01  2.54995E-01
   2.42201E-01  2.26604E-01  2.33612E-01  2.53336E-01  2.48483E-01  2.76061E-01  2.63741E-01  2.61134E-01  2.50232E-01  2.69905E-01
   2.91851E-01  2.99280E-01  2.87632E-01  2.78602E-01  2.95722E-01  2.91482E-01  2.98374E-01  2.36450E-01  3.01453E-01  2.83732E-01
   2.83104E-01  2.68979E-01  2.83303E-01  2.72624E-01  2.86492E-01  2.90187E-01  2.51701E-01  3.48913E-01  2.83417E-01  3.14715E-01
   2.87441E-01  2.74677E-01  2.73208E-01  2.74856E-01  2.90903E-01  2.59924E-01  2.34863E-01  2.06494E-01  1.74975E-01  2.03950E-01
   2.11083E-01  1.83075E-01  1.91943E-01  1.52536E-01  1.60845E-01  1.68201E-01  1.53444E-01  1.54132E-01  1.36749E-01  1.27183E-01
   1.17746E-01  9.22412E-02  1.00552E-01  6.98994E-02  8.19882E-02  6.71962E-02  5.09625E-02  3.38206E-02  2.66213E-02  2.66420E-02
   1.89908E-02 -1.18899E-03 -2.84420E-02 -2.82386E-02 -6.87593E-02 -4.91340E-02 -6.40539E-02 -6.96808E-02 -1.02400E-01 -8.35899E-02
  -1.15369E-01 -1.20546E-01 -1.30005E-01 -1.59359E-01 -1.50444E-01 -1.56835E-01 -1.91533E-01 -2.00581E-01 -1.83541E-01 -2.25037E-01
  -2.41638E-01 -2.40857E-01 -2.91113E-01 -2.84441E-01 -2.64883E-01 -3.07466E-01 -3.15174E-01 -3.55379E-01 -3.62167E-01 -3.71121E-01
  -3.61562E-01 -3.79343E-01 -4.18629E-01 -4.27026E-01 -4.36883E-01 -4.38220E-01 -4.71079E-01 -4.33061E-01 -4.67753E-01 -4.45834E-01
  -4.52818E-01 -4.38299E-01 -4.19495E-01 -4.71169E-01 -4.26376E-01 -4.42327E-01 -4.47246E-01 -4.19416E-01 -3.94343E-01 -3.96968E-01
  -4.08378E-01 -3.90128E-01 -3.54469E-01 -3.94913E-01 -3.68908E-01 -3.63624E-01 -3.52793E-01 -3.32118E-01 -3.32694E-01 -3.36707E-01
  -3.04872E-01 -2.66385E-01 -2.92792E-01 -2.61067E-01 -2.78347E-01 -2.54758E-01 -2.38201E-01 -2.06853E-01 -1.83844E-01 -1.83318E-01
  -1.90862E-01 -1.73198E-01 -1.57618E-01 -1.03845E-01 -1.07753E-01 -8.39649E-02 -8.66883E-02 -8.29501E-02 -7.39990E-02 -2.81411E-02
  -4.89885E-02 -2.50966E-02 -2.05696E-02 -1.51830E-02  1.46386E-02  4.70243E-03  3.69052E-02  5.52231E-02  6.39826E-02  1.17595E-02
   6.93475E-02  5.36188E-02  6.88415E-02  8.00741E-02  7.87094E-02  8.66352E-02  7.73545E-02  6.51557E-02  7.82504E-02  8.08365E-02
   6.75107E-02  5.69185E-02  3.35395E-02  6.92571E-02  2.51950E-02  4.49315E-02  8.73065E-03 -9.79110E-03  1.78326E-02 -8.99858E-03
  -6.77216E-03 -7.94569E-03 -2.26056E-02 -3.81758E-02  6.56809E-04 -3.70013E-02 -4.69391E-02 -6.51044E-02 -4.58111E-02 -5.38445E-02
  -5.42644E-02 -5.14876E-02 -5.33371E-02 -5.94627E-02 -8.74985E-02 -6.78773E-02 -7.90661E-02 -7.51687E-02 -1.12350E-01 -1.03433E-01
  -7.72007E-02 -9.45502E-02 -1.23957E-01 -1.22882E-01 -8.74890E-02 -9.04059E-02 -9.86945E-02 -1.43429E-01 -1.23468E-01 -1.00905E-01
  -1.22710E-01 -1.13463E-01 -1.61256E-01 -1.32953E-01 -1.20768E-01 -1.36354E-01 -1.17083E-01 -9.59796E-02 -1.33446E-01 -1.02972E-01
  -1.27405E-01 -1.58023E-01 -1.15048E-01 -1.00403E-01 -1.41913E-01 -1.11575E-01 -7.82048E-02 -9.39223E-02 -1.19305E-01 -1.15827E-01
  -1.02315E-01 -9.89393E-02 -1.21579E-01 -9.57432E-02 -7.77435E-02 -9.41055E-02 -1.17033E-01 -1.12285E-01 -8.47755E-02 -1.01231E-01
  -9.98090E-02 -1.10664E-01 -1.01893E-01 -8.60212E-02 -8.52555E-02 -1.02407E-01 -8.37405E-02 -4.16617E-02 -5.75298E-02 -7.23145E-02
  -7.42523E-02 -8.59629E-02 -6.18283E-02 -6.31130E-02 -7.39089E-02 -6.27941E-02 -6.49526E-02
 NY points of the fit to the data follow
   6.41766E-01  6.33482E-01  6.26174E-01  6.20981E-01  6.16980E-01  6.12504E-01  6.07430E-01  6.03275E-01  6.01758E-01  6.03712E-01
   6.08837E-01  6.16640E-01  6.27440E-01  6.42189E-01  6.62006E-01  6.87809E-01  7.19834E-01  7.57859E-01  8.02154E-01  8.53689E-01
   9.12834E-01  9.77968E-01  1.04569E+00  1.11262E+00  1.17717E+00  1.23928E+00  1.29789E+00  1.34908E+00  1.38776E+00  1.41123E+00
   1.42015E+00  1.41609E+00  1.39913E+00  1.36821E+00  1.32381E+00  1.26994E+00  1.21190E+00  1.15199E+00  1.08911E+00  1.02347E+00
   9.58871E-01  8.99832E-01  8.49524E-01  8.08676E-01  7.75164E-01  7.46134E-01  7.21045E-01  7.01239E-01  6.87529E-01  6.79631E-01
   6.76261E-01  6.75593E-01  6.76371E-01  6.78497E-01  6.82273E-01  6.87584E-01  6.93951E-01  7.00870E-01  7.08131E-01  7.15970E-01
   7.24931E-01  7.35481E-01  7.47706E-01  7.61087E-01  7.74947E-01  7.89312E-01  8.04753E-01  8.21162E-01  8.37026E-01  8.50255E-01
   8.59904E-01  8.66416E-01  8.69913E-01  8.69002E-01  8.62166E-01  8.50127E-01  8.35741E-01  8.21593E-01  8.08483E-01  7.95692E-01
   7.82836E-01  7.71039E-01  7.61348E-01  7.53201E-01  7.45002E-01  7.35632E-01  7.25266E-01  7.14201E-01  7.01940E-01  6.88617E-01
   6.75803E-01  6.65549E-01  6.59687E-01  6.59440E-01  6.65134E-01  6.76508E-01  6.93200E-01  7.14414E-01  7.38069E-01  7.60906E-01
   7.79584E-01  7.91541E-01  7.95266E-01  7.90157E-01  7.76145E-01  7.53827E-01  7.24656E-01  6.90812E-01  6.54929E-01  6.19778E-01
   5.88043E-01  5.62340E-01  5.45030E-01  5.37736E-01  5.41199E-01  5.55288E-01  5.78896E-01  6.10122E-01  6.46755E-01  6.86554E-01
   7.27145E-01  7.65783E-01  7.99496E-01  8.25524E-01  8.42045E-01  8.48459E-01  8.44916E-01  8.31778E-01  8.09791E-01  7.80679E-01
   7.47193E-01  7.12156E-01  6.77208E-01  6.42863E-01  6.10048E-01  5.80555E-01  5.55610E-01  5.35402E-01  5.20165E-01  5.10129E-01
   5.04683E-01  5.02247E-01  5.01038E-01  5.00143E-01  4.99222E-01  4.97764E-01  4.95282E-01  4.91572E-01  4.86619E-01  4.80484E-01
   4.73375E-01  4.65772E-01  4.58339E-01  4.51618E-01  4.45769E-01  4.40558E-01  4.35590E-01  4.30646E-01  4.25816E-01  4.21214E-01
   4.16621E-01  4.11603E-01  4.05883E-01  3.99854E-01  3.94549E-01  3.90793E-01  3.88645E-01  3.87732E-01  3.87964E-01  3.89642E-01
   3.92919E-01  3.97325E-01  4.01919E-01  4.05995E-01  4.09440E-01  4.12268E-01  4.14097E-01  4.14297E-01  4.12397E-01  4.08374E-01
