 LCModel (Version 6.3-0D) Copyright: S.W. Provencher.          Ref.: Magn. Reson. Med. 30:672-679 (1993).                
 S11_PRESS_35_act
 Data of: Dept of Radiology, The Johns Hopkins University School of Medicine
 24-February-2020  09:53
 32 lines in following concentration table = NCONC+1
    Conc.  %SD /Cr+PCr  Metabolite                                         
    0.682  50%   0.550 Asc                                                 
    4.822  12%   3.887 Asp                                                 
    5.079   6%   4.094 Cr                                                  
    0.888  40%   0.716 GABA                                                
    1.128  18%   0.909 GPC                                                 
    1.459   9%   1.176 GSH                                                 
    2.887  17%   2.327 Gln                                                 
   13.250   5%  10.680 Glu                                                 
    7.305   4%   5.888 Ins                                                 
    0.520  55%   0.419 Lac                                                 
   14.898   1%  12.009 NAA                                                 
    0.000 999%   0.000 NAAG                                                
    0.609  33%   0.491 PCh                                                 
    4.846   6%   3.906 PCr                                                 
    3.824  15%   3.083 PE                                                  
    0.281  20%   0.227 Scyllo                                              
    1.304  35%   1.051 Tau                                                 
    0.000 999%   0.000 -CrCH2                                              
    1.737   3%   1.400 PCh+GPC                                             
    9.925   2%   8.000 Cr+PCr                                              
   14.898   1%  12.009 NAA+NAAG                                            
   16.137   5%  13.007 Glu+Gln                                             
   21.139  17%  17.038 Lip13a                                              
    0.000 999%   0.000 Lip13b                                              
    5.772  18%   4.653 Lip09                                               
    4.765  30%   3.841 MM09                                                
    3.691  16%   2.975 Lip20                                               
    7.575  28%   6.106 MM20                                                
 1.89E-02 999% 1.5E-02 MM12                                                
    3.676  69%   2.963 MM14                                                
    5.155  30%   4.155 MM17                                                
   6 lines in following misc. output table
  FWHM = 0.046 ppm    S/N =  42                                            
  Data shift =-0.004 ppm                                                   
  Ph: -19 deg      -7.0 deg/ppm                                            
  alphaB,S = 3.5E-02,   1.5E+00                                            
   26 spline knots.   Ns =10(1)                                            
   6 inflections.     2 extrema                                            
  917 points on ppm-axis = NY
      4.000000     3.996178     3.992356     3.988534     3.984712     3.980890     3.977067     3.973245     3.969423     3.965601
      3.961779     3.957957     3.954135     3.950313     3.946491     3.942669     3.938847     3.935024     3.931202     3.927380
      3.923558     3.919736     3.915914     3.912092     3.908270     3.904448     3.900626     3.896804     3.892982     3.889159
      3.885337     3.881515     3.877693     3.873871     3.870049     3.866227     3.862405     3.858583     3.854761     3.850939
      3.847116     3.843294     3.839472     3.835650     3.831828     3.828006     3.824184     3.820362     3.816540     3.812718
      3.808896     3.805073     3.801251     3.797429     3.793607     3.789785     3.785963     3.782141     3.778319     3.774497
      3.770675     3.766853     3.763031     3.759208     3.755386     3.751564     3.747742     3.743920     3.740098     3.736276
      3.732454     3.728632     3.724810     3.720988     3.717165     3.713343     3.709521     3.705699     3.701877     3.698055
      3.694233     3.690411     3.686589     3.682767     3.678945     3.675122     3.671300     3.667478     3.663656     3.659834
      3.656012     3.652190     3.648368     3.644546     3.640724     3.636902     3.633080     3.629257     3.625435     3.621613
      3.617791     3.613969     3.610147     3.606325     3.602503     3.598681     3.594859     3.591037     3.587214     3.583392
      3.579570     3.575748     3.571926     3.568104     3.564282     3.560460     3.556638     3.552816     3.548994     3.545171
      3.541349     3.537527     3.533705     3.529883     3.526061     3.522239     3.518417     3.514595     3.510773     3.506951
      3.503129     3.499306     3.495484     3.491662     3.487840     3.484018     3.480196     3.476374     3.472552     3.468730
      3.464908     3.461086     3.457263     3.453441     3.449619     3.445797     3.441975     3.438153     3.434331     3.430509
      3.426687     3.422865     3.419043     3.415220     3.411398     3.407576     3.403754     3.399932     3.396110     3.392288
      3.388466     3.384644     3.380822     3.377000     3.373178     3.369355     3.365533     3.361711     3.357889     3.354067
      3.350245     3.346423     3.342601     3.338779     3.334957     3.331135     3.327312     3.323490     3.319668     3.315846
      3.312024     3.308202     3.304380     3.300558     3.296736     3.292914     3.289092     3.285269     3.281447     3.277625
      3.273803     3.269981     3.266159     3.262337     3.258515     3.254693     3.250871     3.247049     3.243227     3.239404
      3.235582     3.231760     3.227938     3.224116     3.220294     3.216472     3.212650     3.208828     3.205006     3.201184
      3.197361     3.193539     3.189717     3.185895     3.182073     3.178251     3.174429     3.170607     3.166785     3.162963
      3.159141     3.155318     3.151496     3.147674     3.143852     3.140030     3.136208     3.132386     3.128564     3.124742
      3.120920     3.117098     3.113276     3.109453     3.105631     3.101809     3.097987     3.094165     3.090343     3.086521
      3.082699     3.078877     3.075055     3.071233     3.067410     3.063588     3.059766     3.055944     3.052122     3.048300
      3.044478     3.040656     3.036834     3.033012     3.029190     3.025367     3.021545     3.017723     3.013901     3.010079
      3.006257     3.002435     2.998613     2.994791     2.990969     2.987147     2.983325     2.979502     2.975680     2.971858
      2.968036     2.964214     2.960392     2.956570     2.952748     2.948926     2.945104     2.941282     2.937459     2.933637
      2.929815     2.925993     2.922171     2.918349     2.914527     2.910705     2.906883     2.903061     2.899239     2.895416
      2.891594     2.887772     2.883950     2.880128     2.876306     2.872484     2.868662     2.864840     2.861018     2.857196
      2.853374     2.849551     2.845729     2.841907     2.838085     2.834263     2.830441     2.826619     2.822797     2.818975
      2.815153     2.811331     2.807508     2.803686     2.799864     2.796042     2.792220     2.788398     2.784576     2.780754
      2.776932     2.773110     2.769288     2.765465     2.761643     2.757821     2.753999     2.750177     2.746355     2.742533
      2.738711     2.734889     2.731067     2.727245     2.723423     2.719600     2.715778     2.711956     2.708134     2.704312
      2.700490     2.696668     2.692846     2.689024     2.685202     2.681380     2.677557     2.673735     2.669913     2.666091
      2.662269     2.658447     2.654625     2.650803     2.646981     2.643159     2.639337     2.635514     2.631692     2.627870
      2.624048     2.620226     2.616404     2.612582     2.608760     2.604938     2.601116     2.597294     2.593472     2.589649
      2.585827     2.582005     2.578183     2.574361     2.570539     2.566717     2.562895     2.559073     2.555251     2.551429
      2.547606     2.543784     2.539962     2.536140     2.532318     2.528496     2.524674     2.520852     2.517030     2.513208
      2.509386     2.505563     2.501741     2.497919     2.494097     2.490275     2.486453     2.482631     2.478809     2.474987
      2.471165     2.467343     2.463521     2.459698     2.455876     2.452054     2.448232     2.444410     2.440588     2.436766
      2.432944     2.429122     2.425300     2.421478     2.417655     2.413833     2.410011     2.406189     2.402367     2.398545
      2.394723     2.390901     2.387079     2.383257     2.379435     2.375612     2.371790     2.367968     2.364146     2.360324
      2.356502     2.352680     2.348858     2.345036     2.341214     2.337392     2.333570     2.329747     2.325925     2.322103
      2.318281     2.314459     2.310637     2.306815     2.302993     2.299171     2.295349     2.291527     2.287704     2.283882
      2.280060     2.276238     2.272416     2.268594     2.264772     2.260950     2.257128     2.253306     2.249484     2.245661
      2.241839     2.238017     2.234195     2.230373     2.226551     2.222729     2.218907     2.215085     2.211263     2.207441
      2.203619     2.199796     2.195974     2.192152     2.188330     2.184508     2.180686     2.176864     2.173042     2.169220
      2.165398     2.161576     2.157753     2.153931     2.150109     2.146287     2.142465     2.138643     2.134821     2.130999
      2.127177     2.123355     2.119533     2.115710     2.111888     2.108066     2.104244     2.100422     2.096600     2.092778
      2.088956     2.085134     2.081312     2.077490     2.073668     2.069845     2.066023     2.062201     2.058379     2.054557
      2.050735     2.046913     2.043091     2.039269     2.035447     2.031625     2.027802     2.023980     2.020158     2.016336
      2.012514     2.008692     2.004870     2.001048     1.997226     1.993404     1.989582     1.985759     1.981937     1.978115
      1.974293     1.970471     1.966649     1.962827     1.959005     1.955183     1.951361     1.947539     1.943717     1.939894
      1.936072     1.932250     1.928428     1.924606     1.920784     1.916962     1.913140     1.909318     1.905496     1.901674
      1.897851     1.894029     1.890207     1.886385     1.882563     1.878741     1.874919     1.871097     1.867275     1.863453
      1.859631     1.855808     1.851986     1.848164     1.844342     1.840520     1.836698     1.832876     1.829054     1.825232
      1.821410     1.817588     1.813766     1.809943     1.806121     1.802299     1.798477     1.794655     1.790833     1.787011
      1.783189     1.779367     1.775545     1.771723     1.767900     1.764078     1.760256     1.756434     1.752612     1.748790
      1.744968     1.741146     1.737324     1.733502     1.729680     1.725857     1.722035     1.718213     1.714391     1.710569
      1.706747     1.702925     1.699103     1.695281     1.691459     1.687637     1.683815     1.679992     1.676170     1.672348
      1.668526     1.664704     1.660882     1.657060     1.653238     1.649416     1.645594     1.641772     1.637949     1.634127
      1.630305     1.626483     1.622661     1.618839     1.615017     1.611195     1.607373     1.603551     1.599729     1.595906
      1.592084     1.588262     1.584440     1.580618     1.576796     1.572974     1.569152     1.565330     1.561508     1.557686
      1.553864     1.550041     1.546219     1.542397     1.538575     1.534753     1.530931     1.527109     1.523287     1.519465
      1.515643     1.511821     1.507998     1.504176     1.500354     1.496532     1.492710     1.488888     1.485066     1.481244
      1.477422     1.473600     1.469778     1.465955     1.462133     1.458311     1.454489     1.450667     1.446845     1.443023
      1.439201     1.435379     1.431557     1.427735     1.423913     1.420090     1.416268     1.412446     1.408624     1.404802
      1.400980     1.397158     1.393336     1.389514     1.385692     1.381870     1.378047     1.374225     1.370403     1.366581
      1.362759     1.358937     1.355115     1.351293     1.347471     1.343649     1.339827     1.336004     1.332182     1.328360
      1.324538     1.320716     1.316894     1.313072     1.309250     1.305428     1.301606     1.297784     1.293962     1.290139
      1.286317     1.282495     1.278673     1.274851     1.271029     1.267207     1.263385     1.259563     1.255741     1.251919
      1.248096     1.244274     1.240452     1.236630     1.232808     1.228986     1.225164     1.221342     1.217520     1.213698
      1.209876     1.206053     1.202231     1.198409     1.194587     1.190765     1.186943     1.183121     1.179299     1.175477
      1.171655     1.167833     1.164011     1.160188     1.156366     1.152544     1.148722     1.144900     1.141078     1.137256
      1.133434     1.129612     1.125790     1.121968     1.118145     1.114323     1.110501     1.106679     1.102857     1.099035
      1.095213     1.091391     1.087569     1.083747     1.079925     1.076102     1.072280     1.068458     1.064636     1.060814
      1.056992     1.053170     1.049348     1.045526     1.041704     1.037882     1.034060     1.030237     1.026415     1.022593
      1.018771     1.014949     1.011127     1.007305     1.003483     0.999661     0.995839     0.992016     0.988194     0.984372
      0.980550     0.976728     0.972906     0.969083     0.965261     0.961439     0.957617     0.953795     0.949973     0.946151
      0.942328     0.938506     0.934684     0.930862     0.927040     0.923218     0.919396     0.915573     0.911751     0.907929
      0.904107     0.900285     0.896463     0.892641     0.888818     0.884996     0.881174     0.877352     0.873530     0.869708
      0.865885     0.862063     0.858241     0.854419     0.850597     0.846775     0.842953     0.839130     0.835308     0.831486
      0.827664     0.823842     0.820020     0.816198     0.812375     0.808553     0.804731     0.800909     0.797087     0.793265
      0.789443     0.785620     0.781798     0.777976     0.774154     0.770332     0.766510     0.762688     0.758865     0.755043
      0.751221     0.747399     0.743577     0.739755     0.735932     0.732110     0.728288     0.724466     0.720644     0.716822
      0.713000     0.709177     0.705355     0.701533     0.697711     0.693889     0.690067     0.686245     0.682422     0.678600
      0.674778     0.670956     0.667134     0.663312     0.659490     0.655667     0.651845     0.648023     0.644201     0.640379
      0.636557     0.632734     0.628912     0.625090     0.621268     0.617446     0.613624     0.609802     0.605979     0.602157
      0.598335     0.594513     0.590691     0.586869     0.583047     0.579224     0.575402     0.571580     0.567758     0.563936
      0.560114     0.556292     0.552469     0.548647     0.544825     0.541003     0.537181     0.533359     0.529536     0.525714
      0.521892     0.518070     0.514248     0.510426     0.506604     0.502781     0.498959
 NY phased data points follow
   4.49494E-01  4.22572E-01  4.38174E-01  4.28599E-01  4.40356E-01  4.74589E-01  4.70647E-01  4.53514E-01  4.45885E-01  4.33101E-01
   4.53363E-01  4.74983E-01  4.44764E-01  4.92531E-01  4.84078E-01  4.68517E-01  5.08942E-01  5.23764E-01  6.12779E-01  5.96641E-01
   6.86916E-01  7.00743E-01  7.76657E-01  7.95228E-01  8.84148E-01  9.59105E-01  1.08424E+00  1.08940E+00  1.14062E+00  1.18447E+00
   1.19241E+00  1.19451E+00  1.17964E+00  1.14402E+00  1.13717E+00  1.05815E+00  1.03362E+00  9.81337E-01  9.41178E-01  8.87362E-01
   8.23244E-01  7.86918E-01  7.34150E-01  7.01760E-01  6.30071E-01  6.37099E-01  6.21225E-01  5.97655E-01  5.88288E-01  5.73125E-01
   5.92077E-01  5.70566E-01  5.23023E-01  5.27146E-01  5.69151E-01  5.33918E-01  5.81400E-01  5.61180E-01  6.09922E-01  6.15735E-01
   5.92080E-01  5.97279E-01  6.59186E-01  6.27680E-01  6.60269E-01  6.96730E-01  6.87580E-01  7.37877E-01  7.58368E-01  7.80690E-01
   7.82162E-01  8.10340E-01  7.66319E-01  7.76875E-01  7.83434E-01  7.43689E-01  7.61295E-01  7.63145E-01  7.24959E-01  7.55407E-01
   7.37690E-01  7.24836E-01  7.24309E-01  7.25244E-01  7.44346E-01  7.32447E-01  6.85973E-01  6.96164E-01  6.70671E-01  6.38982E-01
   6.08930E-01  6.06057E-01  5.58201E-01  5.75937E-01  5.65291E-01  5.56792E-01  5.77741E-01  5.97035E-01  6.36360E-01  7.04397E-01
   7.07202E-01  7.30824E-01  7.29123E-01  7.52083E-01  7.39716E-01  7.20796E-01  7.00261E-01  6.49706E-01  6.05344E-01  6.07396E-01
   5.39102E-01  5.13703E-01  4.90076E-01  4.40472E-01  4.33563E-01  4.31403E-01  4.49725E-01  5.10552E-01  5.19606E-01  6.04512E-01
   6.12560E-01  6.79446E-01  7.10577E-01  7.82352E-01  8.32287E-01  7.89819E-01  8.44462E-01  7.92055E-01  8.18407E-01  7.43750E-01
   7.39176E-01  6.76898E-01  6.49543E-01  6.15356E-01  5.55341E-01  5.56404E-01  4.92840E-01  4.95923E-01  4.36558E-01  4.59983E-01
   4.28951E-01  4.30032E-01  4.52346E-01  3.88392E-01  3.88224E-01  4.17168E-01  3.95079E-01  3.99429E-01  3.90899E-01  4.07702E-01
   4.16986E-01  4.21879E-01  4.16807E-01  4.08153E-01  4.12522E-01  4.09048E-01  4.36896E-01  4.20214E-01  4.08386E-01  4.25883E-01
   3.76480E-01  4.19702E-01  3.64276E-01  3.66098E-01  3.96264E-01  3.28218E-01  3.37544E-01  3.20324E-01  3.23305E-01  3.07132E-01
   3.19746E-01  3.25948E-01  3.17396E-01  3.66859E-01  3.58922E-01  3.73148E-01  3.87004E-01  3.91872E-01  3.90326E-01  3.72912E-01
   3.82682E-01  3.85221E-01  3.62165E-01  3.88744E-01  3.36749E-01  3.22179E-01  3.38289E-01  3.18044E-01  3.36152E-01  3.07707E-01
   3.31836E-01  3.60194E-01  3.36525E-01  3.63331E-01  3.72661E-01  4.16229E-01  4.22035E-01  4.97319E-01  4.82755E-01  4.84864E-01
   5.32309E-01  5.28528E-01  4.95748E-01  4.62829E-01  4.60876E-01  4.39314E-01  5.06823E-01  6.10314E-01  6.34798E-01  7.27042E-01
   7.85212E-01  8.90570E-01  9.93999E-01  9.93854E-01  1.06646E+00  1.06658E+00  1.11837E+00  1.05728E+00  1.02942E+00  9.50325E-01
   9.32622E-01  8.60515E-01  8.16066E-01  7.51593E-01  6.68931E-01  6.06570E-01  5.85595E-01  5.25016E-01  4.71937E-01  4.88379E-01
   4.55520E-01  4.39933E-01  4.26692E-01  4.36910E-01  3.82979E-01  3.56655E-01  3.29487E-01  3.54566E-01  3.44062E-01  3.27820E-01
   3.38111E-01  3.64576E-01  3.61573E-01  3.32547E-01  3.70153E-01  3.93659E-01  3.81886E-01  3.35550E-01  3.48058E-01  3.00770E-01
   2.87291E-01  3.02082E-01  2.82270E-01  3.40909E-01  4.63908E-01  5.13524E-01  6.85553E-01  8.55980E-01  1.03032E+00  1.19407E+00
   1.34931E+00  1.43901E+00  1.49733E+00  1.52472E+00  1.47880E+00  1.43582E+00  1.39254E+00  1.37835E+00  1.25446E+00  1.21370E+00
   1.09949E+00  9.73738E-01  9.04243E-01  8.09934E-01  7.56548E-01  6.83815E-01  6.12192E-01  5.44083E-01  4.91507E-01  4.82246E-01
   4.53999E-01  3.95988E-01  3.86498E-01  3.96687E-01  3.60533E-01  3.72368E-01  3.33082E-01  3.45997E-01  2.90739E-01  3.21502E-01
   2.89521E-01  2.67587E-01  2.90675E-01  2.72964E-01  2.87048E-01  2.61275E-01  2.83889E-01  2.71476E-01  2.68278E-01  2.78846E-01
   2.47302E-01  2.69540E-01  2.00497E-01  2.07234E-01  2.37818E-01  1.97214E-01  2.27589E-01  1.99065E-01  2.20221E-01  2.40110E-01
   1.94093E-01  1.82969E-01  2.16508E-01  2.15405E-01  2.18631E-01  2.16101E-01  1.83393E-01  1.98753E-01  1.77820E-01  2.04505E-01
   2.09950E-01  2.45636E-01  2.49583E-01  3.20753E-01  3.13421E-01  3.25245E-01  2.86761E-01  2.93648E-01  2.89895E-01  2.82896E-01
   3.00511E-01  2.95438E-01  2.95143E-01  2.85702E-01  3.47814E-01  3.55018E-01  3.43359E-01  3.38194E-01  3.11632E-01  3.14143E-01
   3.23323E-01  2.92632E-01  2.77424E-01  3.34152E-01  2.30271E-01  2.31002E-01  2.21309E-01  1.87416E-01  1.99518E-01  1.99986E-01
   1.50818E-01  1.47983E-01  1.70410E-01  1.82535E-01  1.82196E-01  1.99661E-01  1.90875E-01  2.57858E-01  2.33216E-01  2.71880E-01
   2.93264E-01  2.92327E-01  2.75421E-01  2.65177E-01  3.04767E-01  3.10345E-01  3.49619E-01  3.36588E-01  3.62336E-01  4.23029E-01
   3.89774E-01  4.28859E-01  4.47563E-01  4.37746E-01  4.39677E-01  4.42357E-01  4.51337E-01  4.51974E-01  4.23544E-01  4.32014E-01
   3.99039E-01  4.13097E-01  4.01881E-01  3.31144E-01  3.63873E-01  3.23925E-01  2.92797E-01  2.99784E-01  3.15429E-01  2.87100E-01
   2.95689E-01  3.03779E-01  3.04359E-01  2.59796E-01  2.78223E-01  2.91151E-01  3.03304E-01  3.43494E-01  3.39574E-01  3.39826E-01
   3.43567E-01  4.29221E-01  3.74771E-01  3.78377E-01  3.93920E-01  4.10080E-01  3.77041E-01  4.53675E-01  4.56743E-01  4.93412E-01
   4.78874E-01  5.33526E-01  5.87629E-01  5.69202E-01  5.44495E-01  5.65069E-01  5.73156E-01  6.18071E-01  5.69450E-01  5.57988E-01
   5.70137E-01  5.77175E-01  5.22742E-01  4.51656E-01  5.09432E-01  4.22593E-01  3.92721E-01  4.02315E-01  3.99972E-01  3.87571E-01
   3.76387E-01  4.41384E-01  5.18824E-01  5.72723E-01  6.71496E-01  7.34263E-01  7.66462E-01  7.78965E-01  7.95641E-01  8.17281E-01
   8.18727E-01  7.99388E-01  7.39977E-01  6.98163E-01  6.69946E-01  6.51649E-01  6.21344E-01  6.01978E-01  5.28182E-01  5.19819E-01
   5.40684E-01  5.83037E-01  5.74832E-01  6.02630E-01  5.76228E-01  6.03224E-01  6.41114E-01  6.47724E-01  6.56674E-01  6.17958E-01
   6.44169E-01  6.60982E-01  6.28476E-01  6.06990E-01  6.13742E-01  6.16806E-01  6.14487E-01  5.86676E-01  5.52761E-01  5.56891E-01
   5.54158E-01  5.86383E-01  5.44846E-01  4.97995E-01  5.20482E-01  5.56365E-01  5.33399E-01  5.16283E-01  5.35424E-01  5.19912E-01
   5.62175E-01  5.36909E-01  5.51112E-01  5.48669E-01  5.88614E-01  5.31813E-01  5.21436E-01  5.27493E-01  5.24023E-01  5.19174E-01
   5.31077E-01  5.12767E-01  4.92646E-01  5.00815E-01  5.24314E-01  5.71429E-01  5.74513E-01  6.14349E-01  6.05834E-01  6.66848E-01
   6.60565E-01  6.78292E-01  6.66060E-01  6.96582E-01  6.72583E-01  7.11359E-01  7.26893E-01  7.26439E-01  7.65881E-01  7.58702E-01
   8.29474E-01  8.26593E-01  8.32589E-01  8.30233E-01  7.86495E-01  7.81180E-01  7.66787E-01  6.99435E-01  7.42307E-01  7.57224E-01
   9.01381E-01  1.04714E+00  1.26406E+00  1.56848E+00  1.85387E+00  2.10539E+00  2.34211E+00  2.46388E+00  2.53652E+00  2.52186E+00
   2.48677E+00  2.36643E+00  2.21692E+00  2.11487E+00  1.94037E+00  1.81908E+00  1.62161E+00  1.47150E+00  1.30028E+00  1.19664E+00
   1.04208E+00  9.33332E-01  8.28247E-01  7.49902E-01  7.00247E-01  6.23819E-01  5.77714E-01  5.81220E-01  5.51801E-01  4.82070E-01
   4.94380E-01  4.41788E-01  4.26620E-01  3.78805E-01  3.82529E-01  3.68611E-01  4.02567E-01  3.55292E-01  3.42503E-01  3.54999E-01
   3.36286E-01  3.52453E-01  3.21433E-01  2.96380E-01  3.28163E-01  3.01803E-01  3.24067E-01  3.49818E-01  2.97929E-01  3.24449E-01
   2.78599E-01  3.04213E-01  2.56940E-01  3.06248E-01  2.89404E-01  3.42067E-01  2.89541E-01  2.87214E-01  3.26724E-01  2.98130E-01
   3.15120E-01  2.88708E-01  3.22348E-01  2.65201E-01  3.22403E-01  2.92962E-01  3.20318E-01  2.90459E-01  2.56515E-01  3.04863E-01
   2.85298E-01  2.86329E-01  3.05562E-01  2.62673E-01  2.61794E-01  3.13800E-01  3.26573E-01  3.14780E-01  2.86870E-01  2.97875E-01
   3.16820E-01  2.78442E-01  2.88596E-01  2.48263E-01  2.54996E-01  2.66325E-01  2.59910E-01  2.44412E-01  2.72977E-01  2.92042E-01
   2.86268E-01  3.01663E-01  2.78138E-01  2.62268E-01  2.78918E-01  2.97559E-01  2.76878E-01  2.65409E-01  2.47464E-01  2.52470E-01
   2.99347E-01  3.09151E-01  2.90924E-01  2.76674E-01  2.97904E-01  2.91854E-01  3.33506E-01  2.72289E-01  3.25563E-01  3.07320E-01
   2.74664E-01  3.08988E-01  2.53476E-01  3.12919E-01  3.41255E-01  3.10052E-01  3.37591E-01  3.18472E-01  3.02791E-01  3.20845E-01
   2.80753E-01  2.91313E-01  2.80041E-01  3.20561E-01  2.87358E-01  2.68029E-01  2.79793E-01  2.92812E-01  2.58497E-01  2.92684E-01
   2.94441E-01  2.95004E-01  2.60362E-01  2.32227E-01  2.64842E-01  2.72590E-01  2.66034E-01  2.90543E-01  2.84819E-01  2.77048E-01
   2.53334E-01  2.68336E-01  2.38394E-01  2.71479E-01  2.90358E-01  2.31881E-01  2.56405E-01  2.33687E-01  3.10057E-01  2.75642E-01
   3.22604E-01  2.85416E-01  2.81640E-01  3.16503E-01  3.20951E-01  3.09742E-01  3.58016E-01  3.25824E-01  3.38356E-01  3.47646E-01
   3.27741E-01  3.77127E-01  3.94964E-01  4.07372E-01  4.01610E-01  3.70430E-01  3.66410E-01  3.50469E-01  3.52848E-01  3.75464E-01
   3.60108E-01  3.87488E-01  3.86175E-01  3.81186E-01  3.55195E-01  3.88259E-01  3.98718E-01  3.92631E-01  4.20597E-01  4.40528E-01
   4.43207E-01  4.44903E-01  4.08418E-01  4.25475E-01  4.11402E-01  3.58467E-01  3.51424E-01  3.63390E-01  3.48223E-01  3.04949E-01
   3.04351E-01  2.93050E-01  3.09533E-01  3.03183E-01  2.60420E-01  2.62162E-01  3.04240E-01  2.66115E-01  2.47329E-01  2.23219E-01
   2.36108E-01  2.01073E-01  1.93465E-01  2.27854E-01  1.77479E-01  1.70164E-01  1.57220E-01  1.40325E-01  1.40903E-01  1.38134E-01
   1.12017E-01  9.72777E-02  1.35325E-01  1.11389E-01  9.74780E-02  9.16350E-02  7.69672E-02  3.80869E-02  6.98073E-02  4.72454E-02
   4.90535E-02  5.06578E-02  1.67999E-02  1.72313E-02  5.15634E-02  5.16447E-03  9.80332E-03  3.18068E-02  4.75728E-03 -1.91781E-02
  -6.31295E-02 -4.43825E-03 -3.40597E-02 -6.70635E-02 -5.15324E-02 -1.34709E-02 -3.52995E-02 -7.50549E-02 -2.80315E-02 -3.16785E-02
  -1.17592E-02 -4.73620E-02 -2.60469E-02 -3.28282E-02 -2.28190E-02 -1.25861E-02 -1.18780E-02 -2.75320E-02  3.49361E-03  1.91610E-02
   4.99970E-03 -2.50569E-02 -2.92881E-02  7.15752E-03  4.04916E-02  4.56999E-02 -1.43233E-02  3.05773E-02  3.38284E-02  2.79395E-02
   2.19135E-02  3.93060E-02  2.73525E-02  5.82744E-02  4.02350E-02  4.17089E-02  7.22289E-02  5.83995E-02  6.96143E-02  9.00797E-02
   6.54833E-02  6.03329E-02  7.95401E-02  9.74226E-02  1.11353E-01  1.40183E-01  1.00786E-01  1.45952E-01  1.32857E-01  1.29709E-01
   1.59661E-01  2.14824E-01  1.72072E-01  1.91812E-01  2.15257E-01  1.96151E-01  2.55115E-01  2.17974E-01  2.17345E-01  2.12846E-01
   2.12397E-01  2.58674E-01  2.45256E-01  2.42726E-01  2.75435E-01  2.51310E-01  2.82377E-01  2.81456E-01  2.81068E-01  2.66676E-01
   2.82303E-01  2.58227E-01  2.76801E-01  2.43438E-01  2.44597E-01  2.50540E-01  2.27509E-01  2.55351E-01  2.05170E-01  2.26722E-01
   2.00280E-01  2.02453E-01  1.65539E-01  2.02333E-01  1.83886E-01  1.57836E-01  1.50128E-01  1.33615E-01  1.23996E-01  1.33506E-01
   1.03098E-01  8.74150E-02  6.56868E-02  8.59612E-02  1.15078E-01  6.98712E-02  7.56202E-02  5.28599E-02  2.18368E-03  3.92299E-02
   3.23209E-02  1.32386E-02  2.33942E-02  3.80029E-02  1.07400E-02  2.01294E-02  2.34769E-02 -1.67991E-02 -7.63054E-03 -3.48692E-02
  -2.15801E-02 -3.27221E-02 -1.13102E-02 -1.00871E-02 -3.40756E-02  4.08828E-03 -2.44934E-02 -5.74582E-02 -4.26490E-02 -6.94944E-02
  -4.72508E-02 -5.73796E-02  7.21582E-03 -1.91686E-02 -2.47582E-02 -5.53361E-03  1.42885E-02  2.18143E-02 -4.67528E-02  2.62766E-03
  -2.43371E-03 -2.79181E-02  3.03008E-02 -8.69116E-03 -3.14597E-02  4.69485E-03 -1.90930E-02  7.85707E-04 -4.46760E-02  2.32102E-02
   4.09436E-02  3.56651E-02  8.33387E-03  1.97125E-02 -9.16902E-03  1.08701E-02  4.81866E-03  4.95596E-03  2.13001E-02  5.58954E-02
  -1.61085E-02 -7.09179E-03 -2.37081E-02 -8.62154E-03 -6.52680E-03 -3.37593E-02  7.26429E-04  1.63408E-02 -2.62772E-02  1.91845E-02
  -1.17335E-02 -4.67065E-02 -2.70589E-04 -8.99132E-03 -3.29643E-03  3.67237E-03  1.01059E-02
 NY points of the fit to the data follow
   4.93494E-01  4.85552E-01  4.76118E-01  4.72189E-01  4.70444E-01  4.62736E-01  4.51069E-01  4.39903E-01  4.31984E-01  4.29945E-01
   4.31843E-01  4.34463E-01  4.38033E-01  4.43596E-01  4.50553E-01  4.58200E-01  4.72748E-01  5.04555E-01  5.50921E-01  6.03535E-01
   6.64690E-01  7.31185E-01  7.92701E-01  8.49211E-01  9.07823E-01  9.72065E-01  1.03775E+00  1.09589E+00  1.14012E+00  1.17345E+00
   1.20071E+00  1.21589E+00  1.21144E+00  1.18904E+00  1.15033E+00  1.10038E+00  1.05373E+00  1.00858E+00  9.53865E-01  8.91799E-01
   8.30333E-01  7.73045E-01  7.20152E-01  6.78208E-01  6.47826E-01  6.19952E-01  5.93446E-01  5.71857E-01  5.56290E-01  5.46835E-01
   5.42549E-01  5.39628E-01  5.38023E-01  5.41883E-01  5.50357E-01  5.58333E-01  5.65103E-01  5.73386E-01  5.84841E-01  5.97942E-01
   6.09212E-01  6.20939E-01  6.36299E-01  6.52064E-01  6.66808E-01  6.83294E-01  7.03241E-01  7.27808E-01  7.53833E-01  7.72991E-01
   7.85490E-01  7.97407E-01  8.06192E-01  8.05140E-01  7.94236E-01  7.77917E-01  7.61176E-01  7.50812E-01  7.44474E-01  7.36309E-01
   7.29575E-01  7.27233E-01  7.26010E-01  7.24168E-01  7.20037E-01  7.08925E-01  6.93716E-01  6.79154E-01  6.62757E-01  6.42598E-01
   6.20662E-01  5.98927E-01  5.79531E-01  5.67062E-01  5.64944E-01  5.73278E-01  5.91705E-01  6.19179E-01  6.51702E-01  6.83520E-01
   7.10110E-01  7.27540E-01  7.33987E-01  7.29325E-01  7.14602E-01  6.92204E-01  6.65018E-01  6.34725E-01  6.02455E-01  5.68504E-01
   5.31178E-01  4.91555E-01  4.57684E-01  4.37972E-01  4.32701E-01  4.40149E-01  4.63451E-01  5.00258E-01  5.41193E-01  5.83981E-01
   6.28012E-01  6.72129E-01  7.14644E-01  7.48134E-01  7.69711E-01  7.85027E-01  7.95027E-01  7.94544E-01  7.82105E-01  7.59926E-01
   7.29033E-01  6.92821E-01  6.57151E-01  6.22766E-01  5.88821E-01  5.58922E-01  5.33360E-01  5.11147E-01  4.92457E-01  4.76399E-01
   4.66378E-01  4.61690E-01  4.57682E-01  4.53772E-01  4.50731E-01  4.49483E-01  4.49234E-01  4.47554E-01  4.43442E-01  4.38059E-01
   4.32338E-01  4.26192E-01  4.20128E-01  4.14407E-01  4.08246E-01  4.01828E-01  3.94957E-01  3.86810E-01  3.77744E-01  3.68366E-01
   3.59643E-01  3.52153E-01  3.45480E-01  3.40871E-01  3.38624E-01  3.37321E-01  3.36485E-01  3.35819E-01  3.35069E-01  3.34593E-01
   3.34839E-01  3.37314E-01  3.43639E-01  3.51960E-01  3.62055E-01  3.74282E-01  3.85092E-01  3.92037E-01  3.94765E-01  3.93064E-01
