 LCModel (Version 6.3-0D) Copyright: S.W. Provencher.          Ref.: Magn. Reson. Med. 30:672-679 (1993).                
 S10_PRESS_35_act
 Data of: Dept of Radiology, The Johns Hopkins University School of Medicine
 24-February-2020  09:53
 32 lines in following concentration table = NCONC+1
    Conc.  %SD /Cr+PCr  Metabolite                                         
    0.000 999%   0.000 Asc                                                 
    5.574  10%   4.084 Asp                                                 
    5.131   6%   3.760 Cr                                                  
    0.853  33%   0.625 GABA                                                
    0.989  16%   0.725 GPC                                                 
    1.928   6%   1.413 GSH                                                 
    2.053  20%   1.504 Gln                                                 
   12.267   5%   8.989 Glu                                                 
    9.488   4%   6.953 Ins                                                 
    0.162 126%   0.118 Lac                                                 
   15.892   2%  11.645 NAA                                                 
    0.651  27%   0.477 NAAG                                                
    0.923  17%   0.676 PCh                                                 
    5.786   5%   4.240 PCr                                                 
    3.983  14%   2.919 PE                                                  
    0.475  12%   0.348 Scyllo                                              
    1.568  28%   1.149 Tau                                                 
    0.000 999%   0.000 -CrCH2                                              
    1.912   2%   1.401 PCh+GPC                                             
   10.917   1%   8.000 Cr+PCr                                              
   16.543   1%  12.123 NAA+NAAG                                            
   14.320   5%  10.494 Glu+Gln                                             
   32.738  13%  23.990 Lip13a                                              
    0.000 999%   0.000 Lip13b                                              
    5.441   4%   3.987 Lip09                                               
    0.000 999%   0.000 MM09                                                
    7.739   9%   5.671 Lip20                                               
    4.957  32%   3.632 MM20                                                
    0.236 232%   0.173 MM12                                                
    5.064  13%   3.711 MM14                                                
    0.000 999%   0.000 MM17                                                
   6 lines in following misc. output table
  FWHM = 0.034 ppm    S/N =  58                                            
  Data shift = 0.000 ppm                                                   
  Ph: -15 deg      -4.5 deg/ppm                                            
  alphaB,S = 2.6E-02,   2.6E+01                                            
   26 spline knots.   Ns = 9(1)                                            
  ( 4) 4 infls.   ( 2) 1 extrs.                                            
  917 points on ppm-axis = NY
      4.000000     3.996178     3.992356     3.988534     3.984712     3.980890     3.977067     3.973245     3.969423     3.965601
      3.961779     3.957957     3.954135     3.950313     3.946491     3.942669     3.938847     3.935024     3.931202     3.927380
      3.923558     3.919736     3.915914     3.912092     3.908270     3.904448     3.900626     3.896804     3.892982     3.889159
      3.885337     3.881515     3.877693     3.873871     3.870049     3.866227     3.862405     3.858583     3.854761     3.850939
      3.847116     3.843294     3.839472     3.835650     3.831828     3.828006     3.824184     3.820362     3.816540     3.812718
      3.808896     3.805073     3.801251     3.797429     3.793607     3.789785     3.785963     3.782141     3.778319     3.774497
      3.770675     3.766853     3.763031     3.759208     3.755386     3.751564     3.747742     3.743920     3.740098     3.736276
      3.732454     3.728632     3.724810     3.720988     3.717165     3.713343     3.709521     3.705699     3.701877     3.698055
      3.694233     3.690411     3.686589     3.682767     3.678945     3.675122     3.671300     3.667478     3.663656     3.659834
      3.656012     3.652190     3.648368     3.644546     3.640724     3.636902     3.633080     3.629257     3.625435     3.621613
      3.617791     3.613969     3.610147     3.606325     3.602503     3.598681     3.594859     3.591037     3.587214     3.583392
      3.579570     3.575748     3.571926     3.568104     3.564282     3.560460     3.556638     3.552816     3.548994     3.545171
      3.541349     3.537527     3.533705     3.529883     3.526061     3.522239     3.518417     3.514595     3.510773     3.506951
      3.503129     3.499306     3.495484     3.491662     3.487840     3.484018     3.480196     3.476374     3.472552     3.468730
      3.464908     3.461086     3.457263     3.453441     3.449619     3.445797     3.441975     3.438153     3.434331     3.430509
      3.426687     3.422865     3.419043     3.415220     3.411398     3.407576     3.403754     3.399932     3.396110     3.392288
      3.388466     3.384644     3.380822     3.377000     3.373178     3.369355     3.365533     3.361711     3.357889     3.354067
      3.350245     3.346423     3.342601     3.338779     3.334957     3.331135     3.327312     3.323490     3.319668     3.315846
      3.312024     3.308202     3.304380     3.300558     3.296736     3.292914     3.289092     3.285269     3.281447     3.277625
      3.273803     3.269981     3.266159     3.262337     3.258515     3.254693     3.250871     3.247049     3.243227     3.239404
      3.235582     3.231760     3.227938     3.224116     3.220294     3.216472     3.212650     3.208828     3.205006     3.201184
      3.197361     3.193539     3.189717     3.185895     3.182073     3.178251     3.174429     3.170607     3.166785     3.162963
      3.159141     3.155318     3.151496     3.147674     3.143852     3.140030     3.136208     3.132386     3.128564     3.124742
      3.120920     3.117098     3.113276     3.109453     3.105631     3.101809     3.097987     3.094165     3.090343     3.086521
      3.082699     3.078877     3.075055     3.071233     3.067410     3.063588     3.059766     3.055944     3.052122     3.048300
      3.044478     3.040656     3.036834     3.033012     3.029190     3.025367     3.021545     3.017723     3.013901     3.010079
      3.006257     3.002435     2.998613     2.994791     2.990969     2.987147     2.983325     2.979502     2.975680     2.971858
      2.968036     2.964214     2.960392     2.956570     2.952748     2.948926     2.945104     2.941282     2.937459     2.933637
      2.929815     2.925993     2.922171     2.918349     2.914527     2.910705     2.906883     2.903061     2.899239     2.895416
      2.891594     2.887772     2.883950     2.880128     2.876306     2.872484     2.868662     2.864840     2.861018     2.857196
      2.853374     2.849551     2.845729     2.841907     2.838085     2.834263     2.830441     2.826619     2.822797     2.818975
      2.815153     2.811331     2.807508     2.803686     2.799864     2.796042     2.792220     2.788398     2.784576     2.780754
      2.776932     2.773110     2.769288     2.765465     2.761643     2.757821     2.753999     2.750177     2.746355     2.742533
      2.738711     2.734889     2.731067     2.727245     2.723423     2.719600     2.715778     2.711956     2.708134     2.704312
      2.700490     2.696668     2.692846     2.689024     2.685202     2.681380     2.677557     2.673735     2.669913     2.666091
      2.662269     2.658447     2.654625     2.650803     2.646981     2.643159     2.639337     2.635514     2.631692     2.627870
      2.624048     2.620226     2.616404     2.612582     2.608760     2.604938     2.601116     2.597294     2.593472     2.589649
      2.585827     2.582005     2.578183     2.574361     2.570539     2.566717     2.562895     2.559073     2.555251     2.551429
      2.547606     2.543784     2.539962     2.536140     2.532318     2.528496     2.524674     2.520852     2.517030     2.513208
      2.509386     2.505563     2.501741     2.497919     2.494097     2.490275     2.486453     2.482631     2.478809     2.474987
      2.471165     2.467343     2.463521     2.459698     2.455876     2.452054     2.448232     2.444410     2.440588     2.436766
      2.432944     2.429122     2.425300     2.421478     2.417655     2.413833     2.410011     2.406189     2.402367     2.398545
      2.394723     2.390901     2.387079     2.383257     2.379435     2.375612     2.371790     2.367968     2.364146     2.360324
      2.356502     2.352680     2.348858     2.345036     2.341214     2.337392     2.333570     2.329747     2.325925     2.322103
      2.318281     2.314459     2.310637     2.306815     2.302993     2.299171     2.295349     2.291527     2.287704     2.283882
      2.280060     2.276238     2.272416     2.268594     2.264772     2.260950     2.257128     2.253306     2.249484     2.245661
      2.241839     2.238017     2.234195     2.230373     2.226551     2.222729     2.218907     2.215085     2.211263     2.207441
      2.203619     2.199796     2.195974     2.192152     2.188330     2.184508     2.180686     2.176864     2.173042     2.169220
      2.165398     2.161576     2.157753     2.153931     2.150109     2.146287     2.142465     2.138643     2.134821     2.130999
      2.127177     2.123355     2.119533     2.115710     2.111888     2.108066     2.104244     2.100422     2.096600     2.092778
      2.088956     2.085134     2.081312     2.077490     2.073668     2.069845     2.066023     2.062201     2.058379     2.054557
      2.050735     2.046913     2.043091     2.039269     2.035447     2.031625     2.027802     2.023980     2.020158     2.016336
      2.012514     2.008692     2.004870     2.001048     1.997226     1.993404     1.989582     1.985759     1.981937     1.978115
      1.974293     1.970471     1.966649     1.962827     1.959005     1.955183     1.951361     1.947539     1.943717     1.939894
      1.936072     1.932250     1.928428     1.924606     1.920784     1.916962     1.913140     1.909318     1.905496     1.901674
      1.897851     1.894029     1.890207     1.886385     1.882563     1.878741     1.874919     1.871097     1.867275     1.863453
      1.859631     1.855808     1.851986     1.848164     1.844342     1.840520     1.836698     1.832876     1.829054     1.825232
      1.821410     1.817588     1.813766     1.809943     1.806121     1.802299     1.798477     1.794655     1.790833     1.787011
      1.783189     1.779367     1.775545     1.771723     1.767900     1.764078     1.760256     1.756434     1.752612     1.748790
      1.744968     1.741146     1.737324     1.733502     1.729680     1.725857     1.722035     1.718213     1.714391     1.710569
      1.706747     1.702925     1.699103     1.695281     1.691459     1.687637     1.683815     1.679992     1.676170     1.672348
      1.668526     1.664704     1.660882     1.657060     1.653238     1.649416     1.645594     1.641772     1.637949     1.634127
      1.630305     1.626483     1.622661     1.618839     1.615017     1.611195     1.607373     1.603551     1.599729     1.595906
      1.592084     1.588262     1.584440     1.580618     1.576796     1.572974     1.569152     1.565330     1.561508     1.557686
      1.553864     1.550041     1.546219     1.542397     1.538575     1.534753     1.530931     1.527109     1.523287     1.519465
      1.515643     1.511821     1.507998     1.504176     1.500354     1.496532     1.492710     1.488888     1.485066     1.481244
      1.477422     1.473600     1.469778     1.465955     1.462133     1.458311     1.454489     1.450667     1.446845     1.443023
      1.439201     1.435379     1.431557     1.427735     1.423913     1.420090     1.416268     1.412446     1.408624     1.404802
      1.400980     1.397158     1.393336     1.389514     1.385692     1.381870     1.378047     1.374225     1.370403     1.366581
      1.362759     1.358937     1.355115     1.351293     1.347471     1.343649     1.339827     1.336004     1.332182     1.328360
      1.324538     1.320716     1.316894     1.313072     1.309250     1.305428     1.301606     1.297784     1.293962     1.290139
      1.286317     1.282495     1.278673     1.274851     1.271029     1.267207     1.263385     1.259563     1.255741     1.251919
      1.248096     1.244274     1.240452     1.236630     1.232808     1.228986     1.225164     1.221342     1.217520     1.213698
      1.209876     1.206053     1.202231     1.198409     1.194587     1.190765     1.186943     1.183121     1.179299     1.175477
      1.171655     1.167833     1.164011     1.160188     1.156366     1.152544     1.148722     1.144900     1.141078     1.137256
      1.133434     1.129612     1.125790     1.121968     1.118145     1.114323     1.110501     1.106679     1.102857     1.099035
      1.095213     1.091391     1.087569     1.083747     1.079925     1.076102     1.072280     1.068458     1.064636     1.060814
      1.056992     1.053170     1.049348     1.045526     1.041704     1.037882     1.034060     1.030237     1.026415     1.022593
      1.018771     1.014949     1.011127     1.007305     1.003483     0.999661     0.995839     0.992016     0.988194     0.984372
      0.980550     0.976728     0.972906     0.969083     0.965261     0.961439     0.957617     0.953795     0.949973     0.946151
      0.942328     0.938506     0.934684     0.930862     0.927040     0.923218     0.919396     0.915573     0.911751     0.907929
      0.904107     0.900285     0.896463     0.892641     0.888818     0.884996     0.881174     0.877352     0.873530     0.869708
      0.865885     0.862063     0.858241     0.854419     0.850597     0.846775     0.842953     0.839130     0.835308     0.831486
      0.827664     0.823842     0.820020     0.816198     0.812375     0.808553     0.804731     0.800909     0.797087     0.793265
      0.789443     0.785620     0.781798     0.777976     0.774154     0.770332     0.766510     0.762688     0.758865     0.755043
      0.751221     0.747399     0.743577     0.739755     0.735932     0.732110     0.728288     0.724466     0.720644     0.716822
      0.713000     0.709177     0.705355     0.701533     0.697711     0.693889     0.690067     0.686245     0.682422     0.678600
      0.674778     0.670956     0.667134     0.663312     0.659490     0.655667     0.651845     0.648023     0.644201     0.640379
      0.636557     0.632734     0.628912     0.625090     0.621268     0.617446     0.613624     0.609802     0.605979     0.602157
      0.598335     0.594513     0.590691     0.586869     0.583047     0.579224     0.575402     0.571580     0.567758     0.563936
      0.560114     0.556292     0.552469     0.548647     0.544825     0.541003     0.537181     0.533359     0.529536     0.525714
      0.521892     0.518070     0.514248     0.510426     0.506604     0.502781     0.498959
 NY phased data points follow
   9.43984E-01  9.66625E-01  9.45397E-01  9.56345E-01  9.96648E-01  9.60015E-01  9.33845E-01  9.71036E-01  9.69038E-01  9.18840E-01
   9.37765E-01  9.42532E-01  9.60781E-01  9.59488E-01  9.80685E-01  1.00170E+00  1.01414E+00  1.03389E+00  1.08785E+00  1.08121E+00
   1.15646E+00  1.24095E+00  1.31231E+00  1.34173E+00  1.46239E+00  1.50260E+00  1.55509E+00  1.59075E+00  1.66157E+00  1.61725E+00
   1.64028E+00  1.63354E+00  1.55588E+00  1.48501E+00  1.41378E+00  1.39199E+00  1.31650E+00  1.20253E+00  1.15765E+00  1.07682E+00
   1.03072E+00  9.37884E-01  9.28295E-01  8.76415E-01  8.47267E-01  8.27714E-01  7.98451E-01  7.62313E-01  7.61844E-01  7.69900E-01
   7.75297E-01  7.35127E-01  7.03681E-01  7.28212E-01  7.30140E-01  7.27711E-01  7.24934E-01  7.15941E-01  7.28663E-01  7.43732E-01
   7.18620E-01  7.41109E-01  7.59994E-01  7.71944E-01  7.50451E-01  7.11250E-01  8.03077E-01  8.13971E-01  8.11408E-01  8.26192E-01
   9.22361E-01  9.03773E-01  8.58231E-01  8.64348E-01  8.47639E-01  8.02390E-01  7.75050E-01  7.35914E-01  7.22963E-01  6.64019E-01
   6.49539E-01  6.34835E-01  6.23680E-01  6.10726E-01  6.05479E-01  6.40990E-01  5.98999E-01  5.66026E-01  5.36380E-01  5.62863E-01
   5.33481E-01  5.08998E-01  4.76138E-01  4.56624E-01  4.43052E-01  4.85394E-01  5.17284E-01  5.62372E-01  5.79496E-01  6.07029E-01
   6.55537E-01  6.77084E-01  7.44918E-01  7.18044E-01  6.76347E-01  6.29672E-01  5.86256E-01  5.57050E-01  4.94570E-01  4.40162E-01
   4.26730E-01  3.71794E-01  3.70036E-01  3.10299E-01  3.34461E-01  3.35990E-01  4.26564E-01  4.70349E-01  5.23234E-01  5.98363E-01
   6.71454E-01  7.21012E-01  7.92348E-01  8.22509E-01  8.39158E-01  8.39489E-01  8.35986E-01  7.97781E-01  7.44404E-01  6.78432E-01
   6.51660E-01  5.86572E-01  5.23286E-01  4.85901E-01  4.00802E-01  4.20778E-01  3.57539E-01  3.63496E-01  3.52848E-01  3.42054E-01
   3.39997E-01  3.41676E-01  3.08930E-01  2.81131E-01  3.28275E-01  3.35729E-01  3.71402E-01  2.91306E-01  3.10617E-01  3.33750E-01
   3.16000E-01  3.06744E-01  2.62833E-01  3.17205E-01  2.96193E-01  3.01209E-01  2.96770E-01  2.86860E-01  2.86666E-01  2.90043E-01
   2.73222E-01  2.50535E-01  2.49705E-01  2.28573E-01  2.75737E-01  2.57399E-01  2.27588E-01  2.36234E-01  2.34264E-01  2.63538E-01
   2.79308E-01  2.62507E-01  2.79482E-01  2.72783E-01  3.05203E-01  3.32165E-01  3.27310E-01  3.80245E-01  3.94618E-01  3.65280E-01
   3.34753E-01  3.43575E-01  2.93038E-01  3.10562E-01  2.56367E-01  2.72786E-01  2.42132E-01  2.67557E-01  2.84991E-01  2.61849E-01
   2.65048E-01  3.01007E-01  3.40742E-01  3.66924E-01  3.60859E-01  4.08965E-01  4.27257E-01  4.32089E-01  4.77103E-01  4.97394E-01
   4.88872E-01  4.97633E-01  4.91698E-01  5.07482E-01  5.07150E-01  5.41436E-01  5.19148E-01  5.73876E-01  6.36635E-01  7.52023E-01
   8.42069E-01  9.88986E-01  1.05486E+00  1.16846E+00  1.20276E+00  1.19760E+00  1.18097E+00  1.08217E+00  1.05354E+00  9.23061E-01
   8.77480E-01  7.85260E-01  7.02307E-01  6.23041E-01  5.80787E-01  5.39765E-01  5.01706E-01  4.56860E-01  4.26862E-01  4.28516E-01
   4.00677E-01  3.80353E-01  3.60174E-01  3.72787E-01  3.60003E-01  3.49697E-01  3.21618E-01  3.54219E-01  3.16400E-01  3.24596E-01
   3.11920E-01  3.42545E-01  3.25592E-01  3.30035E-01  3.23335E-01  3.51531E-01  3.44502E-01  3.39519E-01  3.40748E-01  3.65862E-01
   3.85344E-01  4.07853E-01  4.50935E-01  4.63880E-01  5.21224E-01  6.17211E-01  7.83061E-01  9.51025E-01  1.15553E+00  1.36649E+00
   1.51682E+00  1.65016E+00  1.74202E+00  1.72580E+00  1.68666E+00  1.55667E+00  1.47993E+00  1.35579E+00  1.20281E+00  1.06974E+00
   9.19323E-01  8.90477E-01  7.87936E-01  7.32274E-01  6.28399E-01  5.63989E-01  5.21968E-01  4.75544E-01  4.52378E-01  4.23303E-01
   3.91391E-01  3.74332E-01  3.57586E-01  3.11488E-01  3.10555E-01  3.07321E-01  3.40055E-01  3.20086E-01  3.26152E-01  3.15748E-01
   3.20283E-01  3.35224E-01  2.90651E-01  2.91151E-01  2.66176E-01  2.45450E-01  2.41400E-01  2.17809E-01  2.45818E-01  2.29118E-01
   2.34028E-01  2.44103E-01  2.26892E-01  2.43074E-01  2.08293E-01  2.42126E-01  1.93048E-01  2.14024E-01  2.24378E-01  2.12196E-01
   2.09269E-01  2.09918E-01  1.92774E-01  1.91268E-01  1.52750E-01  1.76199E-01  2.07118E-01  1.92189E-01  1.91670E-01  2.11855E-01
   2.20874E-01  2.12185E-01  2.28443E-01  2.61058E-01  2.86112E-01  3.00499E-01  3.13274E-01  3.50137E-01  3.20344E-01  3.25049E-01
   3.10659E-01  2.86466E-01  2.87148E-01  2.86406E-01  2.64280E-01  2.93269E-01  3.28998E-01  3.56593E-01  3.39208E-01  3.22070E-01
   3.30710E-01  2.85597E-01  2.61044E-01  2.58590E-01  2.08797E-01  2.03687E-01  1.44696E-01  1.34702E-01  1.56631E-01  1.40574E-01
   1.48081E-01  1.13749E-01  1.25048E-01  1.67822E-01  1.60616E-01  1.77461E-01  1.81511E-01  2.26208E-01  2.46855E-01  2.77510E-01
   2.94961E-01  2.92908E-01  3.09973E-01  3.30087E-01  2.97856E-01  3.15421E-01  2.97195E-01  3.35819E-01  3.47481E-01  3.70697E-01
   4.35054E-01  4.22305E-01  4.59263E-01  4.47493E-01  4.63123E-01  4.15021E-01  4.48284E-01  4.73709E-01  4.39305E-01  4.23422E-01
   4.48905E-01  4.15561E-01  4.12154E-01  3.88170E-01  3.51575E-01  3.39119E-01  3.09775E-01  2.82677E-01  3.07948E-01  2.80720E-01
   2.91943E-01  2.81722E-01  3.15290E-01  2.76943E-01  2.91177E-01  2.87302E-01  2.86406E-01  2.82928E-01  3.10588E-01  3.25801E-01
   3.48353E-01  3.76143E-01  4.25595E-01  4.16022E-01  3.96913E-01  3.93931E-01  4.31455E-01  4.55054E-01  4.49100E-01  4.85343E-01
   5.01788E-01  5.46411E-01  5.66778E-01  5.63183E-01  5.65423E-01  6.17332E-01  6.05559E-01  5.87209E-01  5.98926E-01  5.67456E-01
   5.51274E-01  5.70017E-01  5.15571E-01  4.92646E-01  4.58342E-01  4.15008E-01  4.06655E-01  3.89335E-01  3.94855E-01  3.97870E-01
   4.28158E-01  4.77143E-01  5.49806E-01  5.96812E-01  6.78573E-01  7.59386E-01  7.98947E-01  8.49294E-01  8.73447E-01  8.79338E-01
   8.32989E-01  8.19098E-01  7.45458E-01  7.20753E-01  6.67605E-01  5.72546E-01  5.50856E-01  5.34426E-01  5.27979E-01  5.23144E-01
   5.36865E-01  5.51776E-01  5.88996E-01  6.22894E-01  6.48633E-01  6.82586E-01  6.82156E-01  6.78185E-01  6.65534E-01  6.80140E-01
   6.57442E-01  6.48917E-01  6.32232E-01  6.03459E-01  6.03659E-01  5.71863E-01  5.62914E-01  5.52421E-01  5.95897E-01  5.56516E-01
   5.81138E-01  5.40954E-01  5.10478E-01  5.23497E-01  5.39574E-01  5.37088E-01  5.21082E-01  5.34069E-01  5.30157E-01  5.39850E-01
   5.69920E-01  5.69390E-01  5.72317E-01  5.59247E-01  5.57553E-01  5.69932E-01  5.24765E-01  5.38103E-01  5.62768E-01  5.70319E-01
   5.29392E-01  5.36429E-01  5.54417E-01  5.31169E-01  5.37512E-01  5.90297E-01  6.38967E-01  6.46918E-01  6.74494E-01  6.87074E-01
   7.29601E-01  7.41554E-01  7.45231E-01  7.63463E-01  7.65171E-01  7.93995E-01  8.07812E-01  7.80008E-01  8.00529E-01  8.26134E-01
   8.35889E-01  8.21840E-01  8.26420E-01  8.44311E-01  8.80457E-01  9.31571E-01  9.83179E-01  1.03754E+00  1.04731E+00  1.08664E+00
   1.12374E+00  1.26067E+00  1.44515E+00  1.73218E+00  2.04943E+00  2.39969E+00  2.63236E+00  2.81220E+00  2.89113E+00  2.88033E+00
   2.75584E+00  2.58349E+00  2.31520E+00  2.06131E+00  1.81470E+00  1.59428E+00  1.38882E+00  1.19928E+00  1.07330E+00  9.38387E-01
   8.60708E-01  7.88477E-01  6.99033E-01  6.49160E-01  6.09872E-01  5.07946E-01  4.88884E-01  4.41356E-01  4.15259E-01  3.89784E-01
   3.53494E-01  3.46094E-01  3.23483E-01  3.25875E-01  3.17818E-01  2.88153E-01  2.91135E-01  3.03849E-01  3.11040E-01  2.93384E-01
   2.82770E-01  2.65577E-01  2.63201E-01  2.74002E-01  2.82093E-01  2.42486E-01  2.40895E-01  2.60807E-01  2.49403E-01  2.57844E-01
   2.40085E-01  2.23646E-01  2.29397E-01  2.34370E-01  2.43709E-01  2.30971E-01  2.20804E-01  2.01634E-01  2.23831E-01  2.30384E-01
   2.41245E-01  1.95343E-01  2.13587E-01  2.16976E-01  1.90557E-01  2.04404E-01  1.90799E-01  2.22078E-01  2.15758E-01  1.87326E-01
   2.15564E-01  2.29949E-01  1.96706E-01  1.97009E-01  1.75816E-01  1.98741E-01  1.85858E-01  1.79210E-01  2.12492E-01  2.07597E-01
   2.31618E-01  2.11813E-01  1.72444E-01  1.78236E-01  1.97466E-01  2.08819E-01  1.86301E-01  1.68608E-01  1.79422E-01  2.04358E-01
   2.07549E-01  2.14756E-01  2.03909E-01  2.21439E-01  2.35935E-01  2.31347E-01  2.22967E-01  2.59729E-01  2.37099E-01  2.53698E-01
   2.50732E-01  2.47187E-01  2.76252E-01  2.82317E-01  2.57224E-01  2.91507E-01  2.82101E-01  3.11882E-01  3.17362E-01  2.86034E-01
   3.12078E-01  3.06412E-01  3.09441E-01  3.25633E-01  3.27657E-01  3.10837E-01  3.33769E-01  3.02930E-01  3.23443E-01  3.20374E-01
   2.88819E-01  3.39850E-01  3.53251E-01  3.19666E-01  3.54106E-01  3.26810E-01  3.26512E-01  3.31501E-01  3.08828E-01  3.13419E-01
   3.18231E-01  3.39584E-01  3.46845E-01  3.36267E-01  3.44257E-01  3.56565E-01  3.41543E-01  3.54974E-01  3.40139E-01  4.08446E-01
   3.81872E-01  3.66087E-01  3.83725E-01  3.86511E-01  3.88139E-01  3.78122E-01  3.93792E-01  3.93963E-01  4.30134E-01  4.12448E-01
   3.91067E-01  4.41001E-01  4.33434E-01  4.22029E-01  4.71128E-01  4.46141E-01  4.84726E-01  4.60890E-01  5.09602E-01  5.16938E-01
   5.04006E-01  5.44563E-01  5.18657E-01  5.44897E-01  5.60589E-01  5.17917E-01  5.32016E-01  5.45237E-01  5.55638E-01  5.34832E-01
   5.27372E-01  5.35620E-01  5.58580E-01  5.45865E-01  5.32413E-01  5.46453E-01  5.66472E-01  5.62710E-01  5.74696E-01  5.87846E-01
   5.71674E-01  5.94516E-01  5.89304E-01  5.66638E-01  5.47560E-01  5.15823E-01  5.18980E-01  4.92791E-01  5.23965E-01  4.89700E-01
   4.72483E-01  5.13410E-01  4.97708E-01  5.17320E-01  4.98100E-01  5.05913E-01  4.70519E-01  5.13784E-01  4.93446E-01  4.82476E-01
   4.56582E-01  4.50314E-01  4.48257E-01  4.42388E-01  4.35579E-01  4.55096E-01  4.35222E-01  4.08230E-01  4.08279E-01  4.41467E-01
   4.42455E-01  4.22246E-01  4.33306E-01  4.04739E-01  4.05553E-01  4.23149E-01  3.76430E-01  4.01719E-01  3.73040E-01  3.81345E-01
   3.87272E-01  3.78731E-01  3.87780E-01  3.63394E-01  3.37300E-01  3.61200E-01  3.66409E-01  3.47270E-01  3.18959E-01  3.39421E-01
   3.25023E-01  3.03432E-01  3.12671E-01  3.05981E-01  2.71817E-01  2.76315E-01  2.51794E-01  2.27564E-01  2.27592E-01  2.30262E-01
   2.11265E-01  2.11697E-01  2.33042E-01  2.10414E-01  1.90040E-01  1.76607E-01  1.68159E-01  1.77915E-01  1.60956E-01  1.51345E-01
   1.65946E-01  1.67824E-01  1.70236E-01  1.40884E-01  1.36057E-01  1.35153E-01  1.27685E-01  1.19010E-01  1.48976E-01  1.14112E-01
   1.05325E-01  1.16178E-01  1.14239E-01  1.21695E-01  1.45485E-01  1.05997E-01  1.19864E-01  1.07511E-01  8.48752E-02  1.34820E-01
   1.29058E-01  1.09331E-01  1.56055E-01  1.35001E-01  1.75854E-01  1.39072E-01  1.82991E-01  1.90527E-01  2.03845E-01  2.03452E-01
   2.27163E-01  2.20541E-01  2.13213E-01  2.22660E-01  2.34873E-01  2.45322E-01  2.36548E-01  2.66091E-01  2.62760E-01  2.51244E-01
   2.52555E-01  2.44589E-01  2.61457E-01  2.68561E-01  2.49577E-01  2.25544E-01  2.34267E-01  2.52178E-01  2.39056E-01  2.40573E-01
   2.57486E-01  2.29983E-01  2.08046E-01  2.05982E-01  1.75534E-01  1.80109E-01  1.98614E-01  1.79804E-01  1.62513E-01  1.50855E-01
   1.57533E-01  1.09406E-01  1.15294E-01  9.61289E-02  8.79153E-02  8.44479E-02  1.03289E-01  6.36328E-02  5.71927E-02  8.68899E-02
   4.59889E-02  2.09576E-02  4.88393E-02  2.80757E-02  2.80080E-02  1.81415E-02  3.17747E-02 -4.07782E-04  2.93822E-02  3.31442E-02
   2.24083E-02  8.14438E-03  3.73775E-02  2.08710E-02  3.05622E-02  4.68150E-02  2.57224E-02  1.37330E-02  4.33983E-03  3.74942E-02
   1.76242E-02  1.90701E-02  2.01752E-02  1.49934E-02  3.87332E-02  2.84384E-02  3.34499E-02  4.21656E-02  4.70229E-02  3.46512E-02
   4.78715E-02  2.96466E-02  4.79577E-02  3.18912E-02  5.76485E-02  6.54204E-02  1.84171E-02  3.90683E-02  3.29344E-02  4.84787E-02
   5.02072E-02  4.51662E-02  5.15999E-02  7.22747E-02  1.95862E-02  3.13284E-02  3.50707E-02  2.40977E-02  7.25627E-02  4.38390E-02
   3.35917E-02  4.40129E-02  3.13908E-02  4.45349E-02  2.27453E-02  2.44787E-02  2.19337E-02  2.07968E-02  1.43317E-02  4.64439E-02
   1.84627E-02  4.73897E-02  3.42563E-02  1.16666E-02  1.79805E-02  2.79929E-02  3.32710E-02  2.04063E-02  3.30624E-02  3.54089E-02
   1.93051E-02  2.85652E-02  2.71209E-02  3.24114E-03  4.19483E-02  1.21954E-02  2.08404E-02
 NY points of the fit to the data follow
   1.03267E+00  1.01846E+00  1.00578E+00  9.92104E-01  9.76658E-01  9.60795E-01  9.46340E-01  9.34473E-01  9.25337E-01  9.18967E-01
   9.16082E-01  9.17447E-01  9.23442E-01  9.33834E-01  9.47675E-01  9.64297E-01  9.84448E-01  1.01017E+00  1.04482E+00  1.09350E+00
   1.15971E+00  1.23949E+00  1.32234E+00  1.39835E+00  1.46290E+00  1.51640E+00  1.56174E+00  1.59999E+00  1.62815E+00  1.64174E+00
   1.63818E+00  1.61617E+00  1.57511E+00  1.51809E+00  1.45255E+00  1.38401E+00  1.31163E+00  1.23475E+00  1.15772E+00  1.08504E+00
   1.01981E+00  9.63577E-01  9.14402E-01  8.68910E-01  8.27447E-01  7.93177E-01  7.67411E-01  7.49261E-01  7.37564E-01  7.31214E-01
   7.28361E-01  7.26691E-01  7.24985E-01  7.23583E-01  7.23520E-01  7.25696E-01  7.29559E-01  7.32855E-01  7.33448E-01  7.30964E-01
   7.26963E-01  7.25073E-01  7.29583E-01  7.41944E-01  7.60142E-01  7.81651E-01  8.04907E-01  8.27859E-01  8.47585E-01  8.62558E-01
   8.72528E-01  8.75811E-01  8.69425E-01  8.52272E-01  8.26210E-01  7.95394E-01  7.65197E-01  7.38653E-01  7.14499E-01  6.91620E-01
   6.72562E-01  6.59217E-01  6.49799E-01  6.41600E-01  6.33379E-01  6.24010E-01  6.10966E-01  5.92936E-01  5.71275E-01  5.48271E-01
   5.26282E-01  5.07203E-01  4.92022E-01  4.81921E-01  4.79940E-01  4.90344E-01  5.15329E-01  5.53008E-01  5.98331E-01  6.44072E-01
   6.81889E-01  7.04733E-01  7.08827E-01  6.94118E-01  6.63203E-01  6.20215E-01  5.70033E-01  5.17530E-01  4.67020E-01  4.21983E-01
   3.84725E-01  3.56119E-01  3.36480E-01  3.27465E-01  3.32913E-01  3.57018E-01  4.00809E-01  4.60500E-01  5.29293E-01  5.99805E-01
   6.65480E-01  7.21064E-01  7.63370E-01  7.91859E-01  8.07329E-01  8.09794E-01  7.98147E-01  7.72270E-01  7.35180E-01  6.91870E-01
   6.45378E-01  5.95756E-01  5.44054E-01  4.94405E-01  4.50747E-01  4.14819E-01  3.87733E-01  3.69997E-01  3.60506E-01  3.56371E-01
   3.54374E-01  3.53314E-01  3.53358E-01  3.54389E-01  3.55832E-01  3.56742E-01  3.55983E-01  3.52689E-01  3.46675E-01  3.38439E-01
   3.28680E-01  3.17943E-01  3.07027E-01  2.97260E-01  2.89421E-01  2.82914E-01  2.76821E-01  2.70831E-01  2.64938E-01  2.58788E-01
   2.51881E-01  2.44600E-01  2.38202E-01  2.33740E-01  2.31633E-01  2.32025E-01  2.34935E-01  2.40010E-01  2.46386E-01  2.52998E-01
   2.59346E-01  2.66155E-01  2.75399E-01  2.89292E-01  3.08101E-01  3.29027E-01  3.47867E-01  3.61254E-01  3.67398E-01  3.65707E-01
