 LCModel (Version 6.3-0D) Copyright: S.W. Provencher.          Ref.: Magn. Reson. Med. 30:672-679 (1993).                
 S02_PRESS_35
 Data of: Dept of Radiology, The Johns Hopkins University School of Medicine
 17-March-2020  16:43
 32 lines in following concentration table = NCONC+1
    Conc.  %SD /Cr+PCr  Metabolite                                         
    0.000 999%   0.000 Asc                                                 
    4.591  14%   3.031 Asp                                                 
    4.867   7%   3.214 Cr                                                  
    2.300  17%   1.519 GABA                                                
    0.912  19%   0.602 GPC                                                 
    2.361   6%   1.559 GSH                                                 
    3.697  14%   2.441 Gln                                                 
   17.324   4%  11.439 Glu                                                 
   12.024   3%   7.940 Ins                                                 
    0.725  42%   0.479 Lac                                                 
   18.389   2%  12.143 NAA                                                 
    1.256  22%   0.830 NAAG                                                
    1.491  12%   0.985 PCh                                                 
    7.248   5%   4.786 PCr                                                 
    2.607  29%   1.721 PE                                                  
    0.237  24%   0.156 Scyllo                                              
    2.588  18%   1.709 Tau                                                 
    0.000 999%   0.000 -CrCH2                                              
    2.403   2%   1.587 PCh+GPC                                             
   12.115   1%   8.000 Cr+PCr                                              
   19.645   1%  12.972 NAA+NAAG                                            
   21.021   4%  13.881 Glu+Gln                                             
    0.000 999%   0.000 Lip13a                                              
    0.000 999%   0.000 Lip13b                                              
    0.000 999%   0.000 Lip09                                               
   11.789  15%   7.784 MM09                                                
    2.709  27%   1.789 Lip20                                               
   11.273  21%   7.444 MM20                                                
    7.172  20%   4.736 MM12                                                
    6.020  30%   3.975 MM14                                                
    4.901  34%   3.236 MM17                                                
   6 lines in following misc. output table
  FWHM = 0.040 ppm    S/N =  55                                            
  Data shift = 0.024 ppm                                                   
  Ph:   3 deg       2.7 deg/ppm                                            
  alphaB,S = 3.6E-02,   4.0E-01                                            
   26 spline knots.   Ns =11(1)                                            
   2 inflections.     1 extrema                                            
  884 points on ppm-axis = NY
      4.000000     3.996038     3.992076     3.988114     3.984152     3.980190     3.976228     3.972266     3.968304     3.964342
      3.960380     3.956418     3.952456     3.948493     3.944531     3.940569     3.936607     3.932645     3.928683     3.924721
      3.920759     3.916797     3.912835     3.908873     3.904911     3.900949     3.896987     3.893025     3.889063     3.885101
      3.881139     3.877177     3.873215     3.869253     3.865291     3.861329     3.857367     3.853405     3.849442     3.845480
      3.841518     3.837556     3.833594     3.829632     3.825670     3.821708     3.817746     3.813784     3.809822     3.805860
      3.801898     3.797936     3.793974     3.790012     3.786050     3.782088     3.778126     3.774164     3.770202     3.766240
      3.762278     3.758316     3.754354     3.750391     3.746429     3.742467     3.738505     3.734543     3.730581     3.726619
      3.722657     3.718695     3.714733     3.710771     3.706809     3.702847     3.698885     3.694923     3.690961     3.686999
      3.683037     3.679075     3.675113     3.671151     3.667189     3.663227     3.659265     3.655303     3.651340     3.647378
      3.643416     3.639454     3.635492     3.631530     3.627568     3.623606     3.619644     3.615682     3.611720     3.607758
      3.603796     3.599834     3.595872     3.591910     3.587948     3.583986     3.580024     3.576062     3.572100     3.568138
      3.564176     3.560214     3.556252     3.552289     3.548327     3.544365     3.540403     3.536441     3.532479     3.528517
      3.524555     3.520593     3.516631     3.512669     3.508707     3.504745     3.500783     3.496821     3.492859     3.488897
      3.484935     3.480973     3.477011     3.473049     3.469087     3.465125     3.461163     3.457201     3.453238     3.449276
      3.445314     3.441352     3.437390     3.433428     3.429466     3.425504     3.421542     3.417580     3.413618     3.409656
      3.405694     3.401732     3.397770     3.393808     3.389846     3.385884     3.381922     3.377960     3.373998     3.370036
      3.366074     3.362112     3.358150     3.354187     3.350225     3.346263     3.342301     3.338339     3.334377     3.330415
      3.326453     3.322491     3.318529     3.314567     3.310605     3.306643     3.302681     3.298719     3.294757     3.290795
      3.286833     3.282871     3.278909     3.274947     3.270985     3.267023     3.263061     3.259099     3.255136     3.251174
      3.247212     3.243250     3.239288     3.235326     3.231364     3.227402     3.223440     3.219478     3.215516     3.211554
      3.207592     3.203630     3.199668     3.195706     3.191744     3.187782     3.183820     3.179858     3.175896     3.171934
      3.167972     3.164010     3.160048     3.156085     3.152123     3.148161     3.144199     3.140237     3.136275     3.132313
      3.128351     3.124389     3.120427     3.116465     3.112503     3.108541     3.104579     3.100617     3.096655     3.092693
      3.088731     3.084769     3.080807     3.076845     3.072883     3.068921     3.064959     3.060997     3.057034     3.053072
      3.049110     3.045148     3.041186     3.037224     3.033262     3.029300     3.025338     3.021376     3.017414     3.013452
      3.009490     3.005528     3.001566     2.997604     2.993642     2.989680     2.985718     2.981756     2.977794     2.973832
      2.969870     2.965908     2.961946     2.957983     2.954021     2.950059     2.946097     2.942135     2.938173     2.934211
      2.930249     2.926287     2.922325     2.918363     2.914401     2.910439     2.906477     2.902515     2.898553     2.894591
      2.890629     2.886667     2.882705     2.878743     2.874781     2.870819     2.866857     2.862895     2.858932     2.854970
      2.851008     2.847046     2.843084     2.839122     2.835160     2.831198     2.827236     2.823274     2.819312     2.815350
      2.811388     2.807426     2.803464     2.799502     2.795540     2.791578     2.787616     2.783654     2.779692     2.775730
      2.771768     2.767806     2.763844     2.759881     2.755919     2.751957     2.747995     2.744033     2.740071     2.736109
      2.732147     2.728185     2.724223     2.720261     2.716299     2.712337     2.708375     2.704413     2.700451     2.696489
      2.692527     2.688565     2.684603     2.680641     2.676679     2.672717     2.668755     2.664793     2.660830     2.656868
      2.652906     2.648944     2.644982     2.641020     2.637058     2.633096     2.629134     2.625172     2.621210     2.617248
      2.613286     2.609324     2.605362     2.601400     2.597438     2.593476     2.589514     2.585552     2.581590     2.577628
      2.573666     2.569704     2.565742     2.561779     2.557817     2.553855     2.549893     2.545931     2.541969     2.538007
      2.534045     2.530083     2.526121     2.522159     2.518197     2.514235     2.510273     2.506311     2.502349     2.498387
      2.494425     2.490463     2.486501     2.482539     2.478577     2.474615     2.470653     2.466691     2.462729     2.458766
      2.454804     2.450842     2.446880     2.442918     2.438956     2.434994     2.431032     2.427070     2.423108     2.419146
      2.415184     2.411222     2.407260     2.403298     2.399336     2.395374     2.391412     2.387450     2.383488     2.379526
      2.375564     2.371602     2.367640     2.363678     2.359715     2.355753     2.351791     2.347829     2.343867     2.339905
      2.335943     2.331981     2.328019     2.324057     2.320095     2.316133     2.312171     2.308209     2.304247     2.300285
      2.296323     2.292361     2.288399     2.284437     2.280475     2.276513     2.272551     2.268589     2.264627     2.260664
      2.256702     2.252740     2.248778     2.244816     2.240854     2.236892     2.232930     2.228968     2.225006     2.221044
      2.217082     2.213120     2.209158     2.205196     2.201234     2.197272     2.193310     2.189348     2.185386     2.181424
      2.177462     2.173500     2.169538     2.165576     2.161613     2.157651     2.153689     2.149727     2.145765     2.141803
      2.137841     2.133879     2.129917     2.125955     2.121993     2.118031     2.114069     2.110107     2.106145     2.102183
      2.098221     2.094259     2.090297     2.086335     2.082373     2.078411     2.074449     2.070487     2.066525     2.062562
      2.058600     2.054638     2.050676     2.046714     2.042752     2.038790     2.034828     2.030866     2.026904     2.022942
      2.018980     2.015018     2.011056     2.007094     2.003132     1.999170     1.995208     1.991246     1.987284     1.983322
      1.979360     1.975398     1.971436     1.967474     1.963511     1.959549     1.955587     1.951625     1.947663     1.943701
      1.939739     1.935777     1.931815     1.927853     1.923891     1.919929     1.915967     1.912005     1.908043     1.904081
      1.900119     1.896157     1.892195     1.888233     1.884271     1.880309     1.876347     1.872385     1.868423     1.864460
      1.860498     1.856536     1.852574     1.848612     1.844650     1.840688     1.836726     1.832764     1.828802     1.824840
      1.820878     1.816916     1.812954     1.808992     1.805030     1.801068     1.797106     1.793144     1.789182     1.785220
      1.781258     1.777296     1.773334     1.769372     1.765409     1.761447     1.757485     1.753523     1.749561     1.745599
      1.741637     1.737675     1.733713     1.729751     1.725789     1.721827     1.717865     1.713903     1.709941     1.705979
      1.702017     1.698055     1.694093     1.690131     1.686169     1.682207     1.678245     1.674283     1.670321     1.666358
      1.662396     1.658434     1.654472     1.650510     1.646548     1.642586     1.638624     1.634662     1.630700     1.626738
      1.622776     1.618814     1.614852     1.610890     1.606928     1.602966     1.599004     1.595042     1.591080     1.587118
      1.583156     1.579194     1.575232     1.571270     1.567307     1.563345     1.559383     1.555421     1.551459     1.547497
      1.543535     1.539573     1.535611     1.531649     1.527687     1.523725     1.519763     1.515801     1.511839     1.507877
      1.503915     1.499953     1.495991     1.492029     1.488067     1.484105     1.480143     1.476181     1.472219     1.468256
      1.464294     1.460332     1.456370     1.452408     1.448446     1.444484     1.440522     1.436560     1.432598     1.428636
      1.424674     1.420712     1.416750     1.412788     1.408826     1.404864     1.400902     1.396940     1.392978     1.389016
      1.385054     1.381092     1.377130     1.373168     1.369205     1.365243     1.361281     1.357319     1.353357     1.349395
      1.345433     1.341471     1.337509     1.333547     1.329585     1.325623     1.321661     1.317699     1.313737     1.309775
      1.305813     1.301851     1.297889     1.293927     1.289965     1.286003     1.282041     1.278079     1.274117     1.270154
      1.266192     1.262230     1.258268     1.254306     1.250344     1.246382     1.242420     1.238458     1.234496     1.230534
      1.226572     1.222610     1.218648     1.214686     1.210724     1.206762     1.202800     1.198838     1.194876     1.190914
      1.186952     1.182990     1.179028     1.175066     1.171103     1.167141     1.163179     1.159217     1.155255     1.151293
      1.147331     1.143369     1.139407     1.135445     1.131483     1.127521     1.123559     1.119597     1.115635     1.111673
      1.107711     1.103749     1.099787     1.095825     1.091863     1.087901     1.083939     1.079977     1.076015     1.072052
      1.068090     1.064128     1.060166     1.056204     1.052242     1.048280     1.044318     1.040356     1.036394     1.032432
      1.028470     1.024508     1.020546     1.016584     1.012622     1.008660     1.004698     1.000736     0.996774     0.992812
      0.988850     0.984888     0.980926     0.976964     0.973001     0.969039     0.965077     0.961115     0.957153     0.953191
      0.949229     0.945267     0.941305     0.937343     0.933381     0.929419     0.925457     0.921495     0.917533     0.913571
      0.909609     0.905647     0.901685     0.897723     0.893761     0.889799     0.885837     0.881875     0.877913     0.873950
      0.869988     0.866026     0.862064     0.858102     0.854140     0.850178     0.846216     0.842254     0.838292     0.834330
      0.830368     0.826406     0.822444     0.818482     0.814520     0.810558     0.806596     0.802634     0.798672     0.794710
      0.790748     0.786786     0.782824     0.778862     0.774899     0.770937     0.766975     0.763013     0.759051     0.755089
      0.751127     0.747165     0.743203     0.739241     0.735279     0.731317     0.727355     0.723393     0.719431     0.715469
      0.711507     0.707545     0.703583     0.699621     0.695659     0.691697     0.687735     0.683773     0.679811     0.675848
      0.671886     0.667924     0.663962     0.660000     0.656038     0.652076     0.648114     0.644152     0.640190     0.636228
      0.632266     0.628304     0.624342     0.620380     0.616418     0.612456     0.608494     0.604532     0.600570     0.596608
      0.592646     0.588684     0.584722     0.580760     0.576797     0.572835     0.568873     0.564911     0.560949     0.556987
      0.553025     0.549063     0.545101     0.541139     0.537177     0.533215     0.529253     0.525291     0.521329     0.517367
      0.513405     0.509443     0.505481     0.501519
 NY phased data points follow
   3.53624E-01  3.11885E-01  3.14239E-01  3.32529E-01  3.57324E-01  2.78016E-01  2.90537E-01  3.06409E-01  3.69275E-01  3.49546E-01
   3.47279E-01  3.85683E-01  4.09224E-01  4.45993E-01  4.52961E-01  5.20410E-01  6.00376E-01  6.53942E-01  7.50224E-01  8.08846E-01
   9.03578E-01  9.77551E-01  1.10216E+00  1.14242E+00  1.19868E+00  1.26464E+00  1.31474E+00  1.35930E+00  1.33769E+00  1.36077E+00
   1.30752E+00  1.26601E+00  1.16913E+00  1.10342E+00  1.04126E+00  9.19344E-01  9.17084E-01  7.93471E-01  7.66390E-01  7.25785E-01
   6.97131E-01  6.33002E-01  6.58624E-01  6.58403E-01  5.81051E-01  6.14554E-01  6.49712E-01  6.07262E-01  5.95801E-01  6.20634E-01
   6.37394E-01  6.67404E-01  6.66614E-01  6.98206E-01  7.07553E-01  7.16129E-01  7.65286E-01  7.35227E-01  7.67466E-01  7.99519E-01
   8.04489E-01  7.95514E-01  8.03235E-01  8.69262E-01  8.68326E-01  8.84551E-01  9.39934E-01  9.53011E-01  1.00485E+00  9.89085E-01
   9.94220E-01  9.60947E-01  9.69880E-01  9.44057E-01  9.05309E-01  8.76317E-01  8.67357E-01  8.69672E-01  8.26204E-01  8.54357E-01
   8.58271E-01  8.20224E-01  8.27131E-01  7.90134E-01  7.97849E-01  8.03805E-01  7.94533E-01  7.76022E-01  7.65475E-01  8.15333E-01
   8.25198E-01  8.35651E-01  8.69912E-01  9.29697E-01  9.26875E-01  9.62399E-01  9.96301E-01  1.01117E+00  1.03036E+00  1.05017E+00
   9.92558E-01  9.31483E-01  8.85014E-01  8.19557E-01  7.02311E-01  6.97608E-01  6.41570E-01  6.13392E-01  6.48548E-01  6.52214E-01
   6.78570E-01  7.14849E-01  7.97080E-01  8.73030E-01  9.66150E-01  1.05508E+00  1.14828E+00  1.23684E+00  1.29151E+00  1.30243E+00
   1.28968E+00  1.25550E+00  1.18830E+00  1.10376E+00  1.08167E+00  9.88133E-01  9.15176E-01  8.44694E-01  7.85233E-01  6.92543E-01
   6.95334E-01  6.14650E-01  5.95675E-01  5.82103E-01  5.47613E-01  5.90462E-01  5.55530E-01  5.73075E-01  5.71694E-01  5.64269E-01
   5.76639E-01  5.52458E-01  5.70983E-01  5.56741E-01  5.27931E-01  5.70224E-01  5.14974E-01  5.42285E-01  5.16970E-01  5.22050E-01
   5.29773E-01  4.90005E-01  4.63073E-01  4.57915E-01  3.89666E-01  4.86768E-01  4.30877E-01  4.24040E-01  4.01505E-01  3.91014E-01
   3.78438E-01  4.02105E-01  3.82458E-01  3.82466E-01  3.74801E-01  4.09577E-01  4.23717E-01  4.14041E-01  4.49834E-01  4.17576E-01
   4.29650E-01  4.31233E-01  4.02912E-01  4.49563E-01  4.07482E-01  3.49794E-01  3.22129E-01  3.30609E-01  3.01705E-01  3.49380E-01
   3.21258E-01  3.25630E-01  3.36919E-01  3.52115E-01  3.95370E-01  4.29682E-01  4.51295E-01  4.69557E-01  5.25628E-01  5.39970E-01
   6.14904E-01  6.16164E-01  6.45178E-01  6.78576E-01  6.60982E-01  7.36136E-01  7.34889E-01  7.15222E-01  7.79679E-01  8.30195E-01
   8.79282E-01  9.43497E-01  1.04338E+00  1.12824E+00  1.25911E+00  1.33739E+00  1.41315E+00  1.42251E+00  1.42754E+00  1.37421E+00
   1.25264E+00  1.12259E+00  1.01290E+00  8.89229E-01  8.12575E-01  7.28436E-01  6.71833E-01  6.22528E-01  6.14790E-01  5.49174E-01
   5.16153E-01  5.16795E-01  4.55261E-01  4.45129E-01  4.80776E-01  4.36513E-01  4.11185E-01  4.30150E-01  3.98072E-01  3.95720E-01
   3.80414E-01  4.33926E-01  4.53958E-01  4.51456E-01  4.44073E-01  4.37992E-01  4.82265E-01  4.65770E-01  4.76756E-01  5.24960E-01
   5.48699E-01  6.52767E-01  7.04035E-01  7.46027E-01  8.70890E-01  9.59669E-01  1.05511E+00  1.20325E+00  1.38963E+00  1.58204E+00
   1.77910E+00  1.89244E+00  2.02563E+00  2.08923E+00  2.05119E+00  2.02926E+00  1.86114E+00  1.67486E+00  1.46519E+00  1.31851E+00
   1.16253E+00  1.03042E+00  9.52292E-01  8.37859E-01  7.52435E-01  7.29206E-01  6.39203E-01  6.16917E-01  5.91378E-01  5.61379E-01
   5.30149E-01  4.92780E-01  5.11235E-01  4.63794E-01  4.79605E-01  4.47977E-01  4.72918E-01  4.63843E-01  5.09433E-01  4.69462E-01
   4.77338E-01  4.76638E-01  4.36718E-01  4.29349E-01  4.07794E-01  4.06630E-01  4.16112E-01  3.73186E-01  3.58095E-01  3.89749E-01
   3.49180E-01  3.65586E-01  3.40749E-01  3.02574E-01  3.44888E-01  3.19051E-01  3.13431E-01  3.31192E-01  3.22692E-01  3.15203E-01
   3.04693E-01  3.21014E-01  3.05519E-01  3.50648E-01  3.22776E-01  3.22523E-01  3.49541E-01  3.43646E-01  3.54770E-01  3.59470E-01
   3.49952E-01  3.99763E-01  3.86131E-01  4.35476E-01  4.28514E-01  4.41495E-01  4.23138E-01  3.83036E-01  4.01274E-01  3.78946E-01
   3.34160E-01  3.94854E-01  3.52862E-01  3.66368E-01  3.88739E-01  3.79355E-01  4.00759E-01  4.16934E-01  4.10763E-01  3.46632E-01
   3.21111E-01  2.97368E-01  3.08035E-01  2.80168E-01  2.56841E-01  2.43316E-01  2.34221E-01  2.63794E-01  2.16322E-01  2.38032E-01
   2.52277E-01  2.80820E-01  3.03926E-01  3.03750E-01  3.20380E-01  3.14425E-01  3.81010E-01  3.84048E-01  4.03788E-01  4.19566E-01
   4.62104E-01  4.45400E-01  4.52370E-01  4.17388E-01  4.45632E-01  5.00340E-01  4.56430E-01  4.99392E-01  5.21418E-01  5.84578E-01
   5.74771E-01  5.63061E-01  5.68441E-01  5.81410E-01  5.75156E-01  5.54853E-01  5.64235E-01  5.14065E-01  5.43161E-01  4.75765E-01
   4.52671E-01  4.18274E-01  4.26375E-01  3.90008E-01  3.91169E-01  3.70852E-01  4.07950E-01  4.00735E-01  4.03039E-01  3.97910E-01
   4.10967E-01  3.97133E-01  4.36880E-01  3.97358E-01  4.51337E-01  5.26432E-01  4.92230E-01  5.33010E-01  5.74472E-01  5.59889E-01
   5.98329E-01  5.91319E-01  6.13724E-01  6.09954E-01  6.84282E-01  6.47616E-01  6.68238E-01  6.98179E-01  7.09108E-01  7.37141E-01
   7.60614E-01  7.16111E-01  7.36729E-01  7.05461E-01  6.88685E-01  6.73753E-01  6.50734E-01  6.34339E-01  6.05804E-01  6.32059E-01
   5.57652E-01  5.89241E-01  5.91089E-01  5.81584E-01  5.90300E-01  6.01939E-01  6.69563E-01  7.08674E-01  7.49990E-01  8.29893E-01
   9.01518E-01  9.09914E-01  9.64231E-01  1.01263E+00  1.02718E+00  9.96045E-01  9.19491E-01  9.06218E-01  8.70300E-01  8.13947E-01
   7.79763E-01  7.41977E-01  7.19751E-01  6.94248E-01  6.87714E-01  6.63126E-01  7.32097E-01  7.13977E-01  7.76964E-01  7.89010E-01
   8.08033E-01  8.15291E-01  8.26209E-01  7.92988E-01  7.79878E-01  7.82840E-01  7.58752E-01  7.72372E-01  6.97089E-01  7.01297E-01
   6.77496E-01  6.58126E-01  7.02670E-01  6.71396E-01  6.09199E-01  6.33584E-01  6.71437E-01  6.60682E-01  6.45724E-01  6.36239E-01
   6.52298E-01  6.56119E-01  6.62332E-01  6.43937E-01  6.62015E-01  6.89221E-01  6.75774E-01  6.84544E-01  6.64223E-01  7.08534E-01
   6.81246E-01  6.43803E-01  6.72150E-01  6.41656E-01  6.55259E-01  6.67006E-01  6.70343E-01  7.36034E-01  7.44825E-01  7.53881E-01
   7.71108E-01  8.26055E-01  8.90832E-01  8.91282E-01  8.84134E-01  9.05554E-01  8.95965E-01  8.98453E-01  9.38397E-01  9.73762E-01
   9.18997E-01  1.00688E+00  1.01830E+00  1.05340E+00  1.07910E+00  1.12492E+00  1.18887E+00  1.24681E+00  1.35856E+00  1.45738E+00
   1.53625E+00  1.64050E+00  1.75602E+00  1.92084E+00  2.10624E+00  2.31059E+00  2.50077E+00  2.68365E+00  2.86659E+00  2.97764E+00
   3.05162E+00  3.05572E+00  2.91803E+00  2.71405E+00  2.44729E+00  2.17813E+00  1.89954E+00  1.62708E+00  1.47925E+00  1.29270E+00
   1.12176E+00  1.00773E+00  8.74355E-01  7.71628E-01  6.96872E-01  6.00940E-01  5.65241E-01  5.37593E-01  4.94355E-01  5.17657E-01
   4.96213E-01  4.70707E-01  4.63435E-01  3.79887E-01  4.24272E-01  4.19349E-01  4.10644E-01  4.34756E-01  4.02196E-01  3.86000E-01
   3.92449E-01  3.68925E-01  3.81528E-01  3.64291E-01  3.61815E-01  3.50493E-01  3.91902E-01  3.73232E-01  3.29148E-01  3.52544E-01
   3.59711E-01  3.17749E-01  3.68361E-01  3.09976E-01  3.07574E-01  3.36610E-01  3.32207E-01  3.37330E-01  3.53928E-01  3.18562E-01
   3.04206E-01  3.39156E-01  3.31597E-01  3.12540E-01  3.33319E-01  3.28217E-01  3.20769E-01  3.15957E-01  3.36125E-01  3.30245E-01
   3.46006E-01  3.20599E-01  3.30832E-01  3.30817E-01  3.43072E-01  3.60802E-01  3.37093E-01  3.20786E-01  3.41307E-01  3.19365E-01
   3.38704E-01  3.36426E-01  3.68456E-01  3.21628E-01  3.29288E-01  3.51687E-01  3.21261E-01  3.28910E-01  3.28613E-01  3.52327E-01
   2.86176E-01  3.74729E-01  3.34918E-01  3.63988E-01  3.67172E-01  3.67644E-01  3.46712E-01  4.00187E-01  3.36527E-01  3.85665E-01
   3.81836E-01  3.79436E-01  4.19164E-01  3.96529E-01  3.84293E-01  4.00291E-01  4.11296E-01  3.94870E-01  4.14294E-01  4.05244E-01
   4.04192E-01  4.04924E-01  3.90318E-01  3.60213E-01  4.25375E-01  3.79647E-01  3.84567E-01  3.92214E-01  3.78813E-01  4.08587E-01
   3.80647E-01  3.95067E-01  3.76249E-01  3.57464E-01  3.62786E-01  3.72054E-01  3.65293E-01  3.77406E-01  3.83556E-01  3.77142E-01
   3.83347E-01  3.76239E-01  3.48639E-01  3.39971E-01  3.93246E-01  3.86525E-01  3.71268E-01  3.99017E-01  4.24974E-01  3.89421E-01
   3.72560E-01  4.20504E-01  3.64444E-01  4.02186E-01  3.70328E-01  3.97183E-01  4.08733E-01  4.16445E-01  4.02215E-01  4.10425E-01
   4.29837E-01  4.29834E-01  4.60650E-01  4.23261E-01  4.73826E-01  4.50737E-01  4.27410E-01  4.61403E-01  4.72241E-01  4.84123E-01
   4.58349E-01  4.65403E-01  4.77837E-01  4.46754E-01  4.45283E-01  4.52168E-01  4.76353E-01  4.58438E-01  4.38005E-01  4.03493E-01
   4.51244E-01  4.57599E-01  4.79720E-01  4.75619E-01  4.76741E-01  4.90289E-01  4.62955E-01  4.64603E-01  4.64075E-01  4.09078E-01
   4.46245E-01  4.39460E-01  3.96529E-01  4.22980E-01  3.96181E-01  4.12818E-01  4.21574E-01  3.85314E-01  4.26375E-01  4.48129E-01
   4.44326E-01  4.47625E-01  4.91919E-01  4.72144E-01  4.76345E-01  5.06308E-01  4.96533E-01  4.56957E-01  4.87338E-01  4.98169E-01
   4.83479E-01  5.27328E-01  5.20848E-01  4.96479E-01  5.25125E-01  5.20204E-01  5.18976E-01  5.42841E-01  5.42627E-01  5.14333E-01
   5.26096E-01  5.60316E-01  6.04168E-01  5.32813E-01  5.70486E-01  5.48457E-01  5.46232E-01  5.40730E-01  5.68826E-01  5.39903E-01
   5.38107E-01  5.43309E-01  5.62378E-01  4.98252E-01  5.22561E-01  5.53687E-01  5.38141E-01  5.12590E-01  5.03462E-01  5.00590E-01
   5.41710E-01  5.06433E-01  4.95033E-01  4.70099E-01  5.09435E-01  4.48979E-01  4.89497E-01  4.94150E-01  4.88633E-01  4.83867E-01
   4.68271E-01  4.96641E-01  4.75139E-01  4.36891E-01  4.70662E-01  4.60470E-01  4.30003E-01  5.13134E-01  4.83203E-01  4.71886E-01
   4.81676E-01  4.74077E-01  4.31455E-01  4.86607E-01  5.06527E-01  4.98874E-01  4.98509E-01  5.00452E-01  4.77133E-01  5.38229E-01
   5.27150E-01  5.69602E-01  5.35132E-01  5.38693E-01  5.51321E-01  5.34097E-01  5.53829E-01  5.83478E-01  6.00371E-01  6.41101E-01
   6.03919E-01  6.24456E-01  6.47096E-01  6.24753E-01  6.36763E-01  6.52496E-01  6.72261E-01  6.74374E-01  6.74525E-01  6.96224E-01
   6.82360E-01  6.94245E-01  6.96050E-01  7.24931E-01  7.18350E-01  6.86546E-01  7.06756E-01  7.07836E-01  6.89389E-01  7.17303E-01
   7.09166E-01  7.30885E-01  7.25585E-01  7.30560E-01  6.83201E-01  7.09678E-01  7.02452E-01  6.79316E-01  6.71086E-01  6.56316E-01
   6.45844E-01  6.47312E-01  6.29824E-01  6.46689E-01  6.47799E-01  5.99638E-01  5.91299E-01  5.74959E-01  5.63352E-01  5.40425E-01
   5.14574E-01  5.37023E-01  5.17333E-01  5.05795E-01  5.23534E-01  4.82028E-01  4.89691E-01  5.03053E-01  4.65125E-01  4.43617E-01
   4.22650E-01  4.33613E-01  4.41232E-01  3.91377E-01  4.33654E-01  4.30926E-01  3.65204E-01  3.84680E-01  4.07368E-01  3.56790E-01
   3.74064E-01  3.67726E-01  3.64671E-01  3.75356E-01  3.42900E-01  3.41793E-01  3.67822E-01  3.53374E-01  3.64369E-01  3.47988E-01
   3.24243E-01  3.62616E-01  3.30590E-01  3.30171E-01  3.09839E-01  2.42987E-01  3.25822E-01  2.60355E-01  2.96497E-01  3.08984E-01
   2.65669E-01  2.68745E-01  2.83439E-01  2.66734E-01  2.57885E-01  2.56538E-01  2.61923E-01  2.12761E-01  2.22802E-01  2.71287E-01
   2.18412E-01  2.18681E-01  2.61157E-01  1.98850E-01  1.97571E-01  2.37976E-01  2.27736E-01  2.50548E-01  1.99635E-01  2.02994E-01
   2.22212E-01  2.26450E-01  1.55403E-01  2.08739E-01  1.85421E-01  1.96826E-01  1.97262E-01  1.76786E-01  1.69738E-01  1.50286E-01
   1.45878E-01  1.38521E-01  1.62340E-01  1.26928E-01
 NY points of the fit to the data follow
   3.74772E-01  3.50179E-01  3.40955E-01  3.33400E-01  3.18291E-01  3.16324E-01  3.19147E-01  3.19947E-01  3.31000E-01  3.42521E-01
   3.54071E-01  3.72931E-01  4.00602E-01  4.36685E-01  4.73498E-01  5.09675E-01  5.63952E-01  6.34321E-01  7.09856E-01  7.97946E-01
   8.91039E-01  9.78940E-01  1.07710E+00  1.16920E+00  1.24088E+00  1.31189E+00  1.35758E+00  1.36986E+00  1.36649E+00  1.34070E+00
   1.29775E+00  1.25140E+00  1.20186E+00  1.13993E+00  1.05522E+00  9.74826E-01  9.05240E-01  8.26869E-01  7.63638E-01  7.22040E-01
   6.79730E-01  6.48264E-01  6.29038E-01  6.06507E-01  5.89868E-01  5.83260E-01  5.84837E-01  5.91299E-01  6.00461E-01  6.11650E-01
   6.23776E-01  6.37696E-01  6.52526E-01  6.67664E-01  6.81140E-01  6.93177E-01  7.12578E-01  7.33997E-01  7.53189E-01  7.76548E-01
   8.01525E-01  8.25310E-01  8.52511E-01  8.77472E-01  9.00386E-01  9.28213E-01  9.50648E-01  9.66108E-01  9.73855E-01  9.76704E-01
   9.78415E-01  9.77637E-01  9.74975E-01  9.66159E-01  9.49006E-01  9.31978E-01  9.11185E-01  8.84237E-01  8.58597E-01  8.37674E-01
   8.19790E-01  8.02310E-01  7.89776E-01  7.79854E-01  7.76197E-01  7.80710E-01  7.84023E-01  7.84919E-01  7.86668E-01  7.89096E-01
   7.97654E-01  8.14745E-01  8.40996E-01  8.77975E-01  9.17403E-01  9.61047E-01  9.98198E-01  1.02197E+00  1.02942E+00  1.01536E+00
   9.78408E-01  9.21475E-01  8.53632E-01  7.86389E-01  7.31239E-01  6.85506E-01  6.53455E-01  6.42193E-01  6.48515E-01  6.62500E-01
   6.96450E-01  7.48215E-01  8.12430E-01  8.91826E-01  9.71884E-01  1.05449E+00  1.14455E+00  1.21070E+00  1.24839E+00  1.27400E+00
   1.26562E+00  1.23749E+00  1.19625E+00  1.13658E+00  1.08583E+00  1.01401E+00  9.38424E-01  8.75507E-01  7.97975E-01  7.35575E-01
   6.86451E-01  6.46965E-01  6.30327E-01  6.07847E-01  5.97171E-01  5.97051E-01  5.92530E-01  5.88977E-01  5.83627E-01  5.82397E-01
   5.77545E-01  5.69990E-01  5.62884E-01  5.50654E-01  5.40265E-01  5.26988E-01  5.10325E-01  4.98125E-01  4.81771E-01  4.69011E-01
   4.60717E-01  4.52725E-01  4.49337E-01  4.43606E-01  4.37285E-01  4.32759E-01  4.23865E-01  4.14575E-01  4.08450E-01  4.05126E-01
   4.04168E-01  4.06772E-01  4.10296E-01  4.15695E-01  4.21770E-01  4.25803E-01  4.30672E-01  4.32296E-01  4.30555E-01  4.28671E-01
   4.22627E-01  4.13732E-01  4.06217E-01  3.91441E-01  3.77898E-01  3.64107E-01  3.47065E-01  3.34877E-01  3.24940E-01  3.26393E-01
   3.35087E-01  3.44593E-01  3.59698E-01  3.80677E-01  4.07036E-01  4.35359E-01  4.65176E-01  4.95779E-01  5.24874E-01  5.55272E-01
   5.83554E-01  6.00942E-01  6.28804E-01  6.56799E-01  6.75735E-01  7.01585E-01  7.15199E-01  7.29775E-01  7.66630E-01  8.20473E-01
   8.87176E-01  9.62239E-01  1.05413E+00  1.15896E+00  1.25540E+00  1.33638E+00  1.39182E+00  1.42998E+00  1.41400E+00  1.34828E+00
   1.25609E+00  1.13696E+00  1.02119E+00  9.10098E-01  8.23559E-01  7.53332E-01  6.76468E-01  6.28929E-01  5.90253E-01  5.38361E-01
   5.03712E-01  4.77192E-01  4.57610E-01  4.43861E-01  4.32587E-01  4.24685E-01  4.18516E-01  4.15606E-01  4.15056E-01  4.15943E-01
   4.18876E-01  4.23907E-01  4.30751E-01  4.39083E-01  4.48846E-01  4.60398E-01  4.74102E-01  4.91982E-01  5.16158E-01  5.49005E-01
   5.93520E-01  6.44883E-01  6.95638E-01  7.63720E-01  8.55249E-01  9.53708E-01  1.08245E+00  1.23678E+00  1.39748E+00  1.57309E+00
