 LCModel (Version 6.3-0D) Copyright: S.W. Provencher.          Ref.: Magn. Reson. Med. 30:672-679 (1993).                
 S01_PRESS_35
 Data of: Dept of Radiology, The Johns Hopkins University School of Medicine
 17-March-2020  16:43
 32 lines in following concentration table = NCONC+1
    Conc.  %SD /Cr+PCr  Metabolite                                         
    0.000 999%   0.000 Asc                                                 
    3.793  14%   2.671 Asp                                                 
    5.146   6%   3.624 Cr                                                  
    1.363  21%   0.960 GABA                                                
    0.909  16%   0.640 GPC                                                 
    2.707   5%   1.906 GSH                                                 
    3.194  13%   2.249 Gln                                                 
   17.125   4%  12.060 Glu                                                 
    9.856   3%   6.941 Ins                                                 
    0.662  31%   0.466 Lac                                                 
   17.321   2%  12.198 NAA                                                 
    1.163  17%   0.819 NAAG                                                
    1.597   9%   1.125 PCh                                                 
    6.214   5%   4.376 PCr                                                 
    3.067  20%   2.160 PE                                                  
    0.293  17%   0.206 Scyllo                                              
    2.298  18%   1.619 Tau                                                 
    0.000 999%   0.000 -CrCH2                                              
    2.506   2%   1.765 PCh+GPC                                             
   11.360   1%   8.000 Cr+PCr                                              
   18.485   1%  13.017 NAA+NAAG                                            
   20.319   4%  14.309 Glu+Gln                                             
   21.868  26%  15.400 Lip13a                                              
    0.000 999%   0.000 Lip13b                                              
    5.884  30%   4.144 Lip09                                               
    5.157  39%   3.632 MM09                                                
    4.850  16%   3.416 Lip20                                               
    5.778  39%   4.069 MM20                                                
    2.598  51%   1.830 MM12                                                
    6.182  14%   4.353 MM14                                                
    5.611  29%   3.951 MM17                                                
   6 lines in following misc. output table
  FWHM = 0.032 ppm    S/N =  62                                            
  Data shift = 0.024 ppm                                                   
  Ph:   0 deg      -2.5 deg/ppm                                            
  alphaB,S = 3.2E-02,   4.0E-01                                            
   26 spline knots.   Ns = 8(1)                                            
   2 inflections.     1 extrema                                            
  884 points on ppm-axis = NY
      4.000000     3.996038     3.992076     3.988114     3.984152     3.980190     3.976228     3.972266     3.968304     3.964342
      3.960380     3.956418     3.952456     3.948493     3.944531     3.940569     3.936607     3.932645     3.928683     3.924721
      3.920759     3.916797     3.912835     3.908873     3.904911     3.900949     3.896987     3.893025     3.889063     3.885101
      3.881139     3.877177     3.873215     3.869253     3.865291     3.861329     3.857367     3.853405     3.849442     3.845480
      3.841518     3.837556     3.833594     3.829632     3.825670     3.821708     3.817746     3.813784     3.809822     3.805860
      3.801898     3.797936     3.793974     3.790012     3.786050     3.782088     3.778126     3.774164     3.770202     3.766240
      3.762278     3.758316     3.754354     3.750391     3.746429     3.742467     3.738505     3.734543     3.730581     3.726619
      3.722657     3.718695     3.714733     3.710771     3.706809     3.702847     3.698885     3.694923     3.690961     3.686999
      3.683037     3.679075     3.675113     3.671151     3.667189     3.663227     3.659265     3.655303     3.651340     3.647378
      3.643416     3.639454     3.635492     3.631530     3.627568     3.623606     3.619644     3.615682     3.611720     3.607758
      3.603796     3.599834     3.595872     3.591910     3.587948     3.583986     3.580024     3.576062     3.572100     3.568138
      3.564176     3.560214     3.556252     3.552289     3.548327     3.544365     3.540403     3.536441     3.532479     3.528517
      3.524555     3.520593     3.516631     3.512669     3.508707     3.504745     3.500783     3.496821     3.492859     3.488897
      3.484935     3.480973     3.477011     3.473049     3.469087     3.465125     3.461163     3.457201     3.453238     3.449276
      3.445314     3.441352     3.437390     3.433428     3.429466     3.425504     3.421542     3.417580     3.413618     3.409656
      3.405694     3.401732     3.397770     3.393808     3.389846     3.385884     3.381922     3.377960     3.373998     3.370036
      3.366074     3.362112     3.358150     3.354187     3.350225     3.346263     3.342301     3.338339     3.334377     3.330415
      3.326453     3.322491     3.318529     3.314567     3.310605     3.306643     3.302681     3.298719     3.294757     3.290795
      3.286833     3.282871     3.278909     3.274947     3.270985     3.267023     3.263061     3.259099     3.255136     3.251174
      3.247212     3.243250     3.239288     3.235326     3.231364     3.227402     3.223440     3.219478     3.215516     3.211554
      3.207592     3.203630     3.199668     3.195706     3.191744     3.187782     3.183820     3.179858     3.175896     3.171934
      3.167972     3.164010     3.160048     3.156085     3.152123     3.148161     3.144199     3.140237     3.136275     3.132313
      3.128351     3.124389     3.120427     3.116465     3.112503     3.108541     3.104579     3.100617     3.096655     3.092693
      3.088731     3.084769     3.080807     3.076845     3.072883     3.068921     3.064959     3.060997     3.057034     3.053072
      3.049110     3.045148     3.041186     3.037224     3.033262     3.029300     3.025338     3.021376     3.017414     3.013452
      3.009490     3.005528     3.001566     2.997604     2.993642     2.989680     2.985718     2.981756     2.977794     2.973832
      2.969870     2.965908     2.961946     2.957983     2.954021     2.950059     2.946097     2.942135     2.938173     2.934211
      2.930249     2.926287     2.922325     2.918363     2.914401     2.910439     2.906477     2.902515     2.898553     2.894591
      2.890629     2.886667     2.882705     2.878743     2.874781     2.870819     2.866857     2.862895     2.858932     2.854970
      2.851008     2.847046     2.843084     2.839122     2.835160     2.831198     2.827236     2.823274     2.819312     2.815350
      2.811388     2.807426     2.803464     2.799502     2.795540     2.791578     2.787616     2.783654     2.779692     2.775730
      2.771768     2.767806     2.763844     2.759881     2.755919     2.751957     2.747995     2.744033     2.740071     2.736109
      2.732147     2.728185     2.724223     2.720261     2.716299     2.712337     2.708375     2.704413     2.700451     2.696489
      2.692527     2.688565     2.684603     2.680641     2.676679     2.672717     2.668755     2.664793     2.660830     2.656868
      2.652906     2.648944     2.644982     2.641020     2.637058     2.633096     2.629134     2.625172     2.621210     2.617248
      2.613286     2.609324     2.605362     2.601400     2.597438     2.593476     2.589514     2.585552     2.581590     2.577628
      2.573666     2.569704     2.565742     2.561779     2.557817     2.553855     2.549893     2.545931     2.541969     2.538007
      2.534045     2.530083     2.526121     2.522159     2.518197     2.514235     2.510273     2.506311     2.502349     2.498387
      2.494425     2.490463     2.486501     2.482539     2.478577     2.474615     2.470653     2.466691     2.462729     2.458766
      2.454804     2.450842     2.446880     2.442918     2.438956     2.434994     2.431032     2.427070     2.423108     2.419146
      2.415184     2.411222     2.407260     2.403298     2.399336     2.395374     2.391412     2.387450     2.383488     2.379526
      2.375564     2.371602     2.367640     2.363678     2.359715     2.355753     2.351791     2.347829     2.343867     2.339905
      2.335943     2.331981     2.328019     2.324057     2.320095     2.316133     2.312171     2.308209     2.304247     2.300285
      2.296323     2.292361     2.288399     2.284437     2.280475     2.276513     2.272551     2.268589     2.264627     2.260664
      2.256702     2.252740     2.248778     2.244816     2.240854     2.236892     2.232930     2.228968     2.225006     2.221044
      2.217082     2.213120     2.209158     2.205196     2.201234     2.197272     2.193310     2.189348     2.185386     2.181424
      2.177462     2.173500     2.169538     2.165576     2.161613     2.157651     2.153689     2.149727     2.145765     2.141803
      2.137841     2.133879     2.129917     2.125955     2.121993     2.118031     2.114069     2.110107     2.106145     2.102183
      2.098221     2.094259     2.090297     2.086335     2.082373     2.078411     2.074449     2.070487     2.066525     2.062562
      2.058600     2.054638     2.050676     2.046714     2.042752     2.038790     2.034828     2.030866     2.026904     2.022942
      2.018980     2.015018     2.011056     2.007094     2.003132     1.999170     1.995208     1.991246     1.987284     1.983322
      1.979360     1.975398     1.971436     1.967474     1.963511     1.959549     1.955587     1.951625     1.947663     1.943701
      1.939739     1.935777     1.931815     1.927853     1.923891     1.919929     1.915967     1.912005     1.908043     1.904081
      1.900119     1.896157     1.892195     1.888233     1.884271     1.880309     1.876347     1.872385     1.868423     1.864460
      1.860498     1.856536     1.852574     1.848612     1.844650     1.840688     1.836726     1.832764     1.828802     1.824840
      1.820878     1.816916     1.812954     1.808992     1.805030     1.801068     1.797106     1.793144     1.789182     1.785220
      1.781258     1.777296     1.773334     1.769372     1.765409     1.761447     1.757485     1.753523     1.749561     1.745599
      1.741637     1.737675     1.733713     1.729751     1.725789     1.721827     1.717865     1.713903     1.709941     1.705979
      1.702017     1.698055     1.694093     1.690131     1.686169     1.682207     1.678245     1.674283     1.670321     1.666358
      1.662396     1.658434     1.654472     1.650510     1.646548     1.642586     1.638624     1.634662     1.630700     1.626738
      1.622776     1.618814     1.614852     1.610890     1.606928     1.602966     1.599004     1.595042     1.591080     1.587118
      1.583156     1.579194     1.575232     1.571270     1.567307     1.563345     1.559383     1.555421     1.551459     1.547497
      1.543535     1.539573     1.535611     1.531649     1.527687     1.523725     1.519763     1.515801     1.511839     1.507877
      1.503915     1.499953     1.495991     1.492029     1.488067     1.484105     1.480143     1.476181     1.472219     1.468256
      1.464294     1.460332     1.456370     1.452408     1.448446     1.444484     1.440522     1.436560     1.432598     1.428636
      1.424674     1.420712     1.416750     1.412788     1.408826     1.404864     1.400902     1.396940     1.392978     1.389016
      1.385054     1.381092     1.377130     1.373168     1.369205     1.365243     1.361281     1.357319     1.353357     1.349395
      1.345433     1.341471     1.337509     1.333547     1.329585     1.325623     1.321661     1.317699     1.313737     1.309775
      1.305813     1.301851     1.297889     1.293927     1.289965     1.286003     1.282041     1.278079     1.274117     1.270154
      1.266192     1.262230     1.258268     1.254306     1.250344     1.246382     1.242420     1.238458     1.234496     1.230534
      1.226572     1.222610     1.218648     1.214686     1.210724     1.206762     1.202800     1.198838     1.194876     1.190914
      1.186952     1.182990     1.179028     1.175066     1.171103     1.167141     1.163179     1.159217     1.155255     1.151293
      1.147331     1.143369     1.139407     1.135445     1.131483     1.127521     1.123559     1.119597     1.115635     1.111673
      1.107711     1.103749     1.099787     1.095825     1.091863     1.087901     1.083939     1.079977     1.076015     1.072052
      1.068090     1.064128     1.060166     1.056204     1.052242     1.048280     1.044318     1.040356     1.036394     1.032432
      1.028470     1.024508     1.020546     1.016584     1.012622     1.008660     1.004698     1.000736     0.996774     0.992812
      0.988850     0.984888     0.980926     0.976964     0.973001     0.969039     0.965077     0.961115     0.957153     0.953191
      0.949229     0.945267     0.941305     0.937343     0.933381     0.929419     0.925457     0.921495     0.917533     0.913571
      0.909609     0.905647     0.901685     0.897723     0.893761     0.889799     0.885837     0.881875     0.877913     0.873950
      0.869988     0.866026     0.862064     0.858102     0.854140     0.850178     0.846216     0.842254     0.838292     0.834330
      0.830368     0.826406     0.822444     0.818482     0.814520     0.810558     0.806596     0.802634     0.798672     0.794710
      0.790748     0.786786     0.782824     0.778862     0.774899     0.770937     0.766975     0.763013     0.759051     0.755089
      0.751127     0.747165     0.743203     0.739241     0.735279     0.731317     0.727355     0.723393     0.719431     0.715469
      0.711507     0.707545     0.703583     0.699621     0.695659     0.691697     0.687735     0.683773     0.679811     0.675848
      0.671886     0.667924     0.663962     0.660000     0.656038     0.652076     0.648114     0.644152     0.640190     0.636228
      0.632266     0.628304     0.624342     0.620380     0.616418     0.612456     0.608494     0.604532     0.600570     0.596608
      0.592646     0.588684     0.584722     0.580760     0.576797     0.572835     0.568873     0.564911     0.560949     0.556987
      0.553025     0.549063     0.545101     0.541139     0.537177     0.533215     0.529253     0.525291     0.521329     0.517367
      0.513405     0.509443     0.505481     0.501519
 NY phased data points follow
   3.15708E-01  3.41731E-01  3.27948E-01  3.35554E-01  3.46286E-01  3.41276E-01  3.52348E-01  3.36492E-01  3.50837E-01  3.63649E-01
   3.83520E-01  3.89278E-01  4.28313E-01  4.35481E-01  4.95448E-01  5.19953E-01  5.41119E-01  6.80494E-01  7.23777E-01  7.89841E-01
   8.74483E-01  9.64976E-01  1.05329E+00  1.08669E+00  1.22972E+00  1.30917E+00  1.32178E+00  1.38379E+00  1.33712E+00  1.33319E+00
   1.29693E+00  1.22037E+00  1.15238E+00  1.03820E+00  9.80333E-01  8.79080E-01  8.23034E-01  7.45146E-01  7.04658E-01  6.77060E-01
   6.88876E-01  5.83287E-01  5.85758E-01  5.54124E-01  5.83366E-01  5.67401E-01  5.50506E-01  5.81358E-01  6.04027E-01  6.04288E-01
   6.03215E-01  6.38868E-01  6.23931E-01  6.26341E-01  6.49121E-01  6.85902E-01  6.75859E-01  7.23859E-01  7.29872E-01  7.28402E-01
   7.51746E-01  7.78869E-01  7.89854E-01  8.24457E-01  8.86205E-01  9.04322E-01  9.16271E-01  9.62835E-01  9.59643E-01  9.24275E-01
   9.88980E-01  9.31066E-01  9.06464E-01  8.50366E-01  7.92369E-01  7.83727E-01  7.74111E-01  7.33551E-01  7.43494E-01  7.46530E-01
   7.29894E-01  7.25409E-01  7.20737E-01  6.88504E-01  7.16938E-01  6.67416E-01  6.73786E-01  6.31300E-01  6.39764E-01  6.44138E-01
   6.31186E-01  6.83694E-01  7.07786E-01  7.22176E-01  8.07973E-01  8.53168E-01  8.87659E-01  8.93579E-01  9.25635E-01  9.09552E-01
   8.64228E-01  8.14293E-01  7.37727E-01  6.58560E-01  5.91345E-01  5.67612E-01  5.22155E-01  5.13134E-01  5.00119E-01  5.13405E-01
   5.60382E-01  5.51181E-01  6.32126E-01  7.12449E-01  8.07743E-01  9.07887E-01  9.81759E-01  1.04139E+00  1.12109E+00  1.12361E+00
   1.10957E+00  1.06486E+00  1.01152E+00  9.42021E-01  8.93038E-01  7.82729E-01  7.19684E-01  6.56545E-01  5.93511E-01  5.26731E-01
   4.75068E-01  4.64859E-01  4.51475E-01  4.50947E-01  4.66586E-01  4.85472E-01  4.74381E-01  4.56950E-01  4.78761E-01  4.73810E-01
   4.63109E-01  4.81797E-01  4.24235E-01  4.66896E-01  4.54049E-01  4.49002E-01  4.72420E-01  4.33156E-01  4.23323E-01  4.32043E-01
   4.17941E-01  4.09599E-01  4.11772E-01  3.67795E-01  3.36253E-01  3.57406E-01  3.47439E-01  3.09852E-01  3.45026E-01  3.10875E-01
   3.06355E-01  3.33865E-01  3.03095E-01  3.68561E-01  3.33035E-01  3.43293E-01  3.90164E-01  3.95711E-01  3.77805E-01  3.94769E-01
   3.97132E-01  3.95962E-01  4.00360E-01  3.76969E-01  3.81902E-01  3.58297E-01  3.13952E-01  2.71283E-01  3.28106E-01  2.67057E-01
   2.76376E-01  3.23207E-01  3.06304E-01  3.47693E-01  3.82028E-01  3.96960E-01  4.47605E-01  4.70261E-01  5.14529E-01  5.25440E-01
   5.49500E-01  5.87562E-01  5.89192E-01  6.21682E-01  6.58186E-01  6.59317E-01  6.71008E-01  7.10607E-01  7.19564E-01  7.81619E-01
   8.60325E-01  9.51665E-01  1.07959E+00  1.22599E+00  1.33596E+00  1.47554E+00  1.56617E+00  1.53995E+00  1.52712E+00  1.43204E+00
   1.32885E+00  1.15237E+00  1.00529E+00  8.48362E-01  7.56249E-01  7.07253E-01  6.64411E-01  6.09004E-01  5.36605E-01  5.00009E-01
   5.06921E-01  4.43038E-01  4.12007E-01  4.25154E-01  4.33429E-01  4.02018E-01  4.12869E-01  3.99858E-01  4.04121E-01  3.96257E-01
   3.85374E-01  3.95420E-01  4.00064E-01  4.03373E-01  4.06254E-01  4.48465E-01  4.41215E-01  4.37365E-01  4.56384E-01  4.41343E-01
   4.96834E-01  5.57466E-01  5.54129E-01  6.65529E-01  7.61516E-01  8.80667E-01  9.84070E-01  1.17042E+00  1.36720E+00  1.57342E+00
   1.82954E+00  1.96070E+00  2.11058E+00  2.15840E+00  2.15642E+00  2.02230E+00  1.82447E+00  1.56940E+00  1.37240E+00  1.16730E+00
   1.00298E+00  8.56180E-01  8.04866E-01  7.09518E-01  6.76553E-01  5.89255E-01  5.63441E-01  5.31891E-01  5.11851E-01  4.96466E-01
   4.83138E-01  4.21687E-01  4.60509E-01  4.94704E-01  4.47247E-01  4.50025E-01  4.46482E-01  4.30048E-01  4.53250E-01  4.55400E-01
   4.45565E-01  4.17815E-01  3.97368E-01  3.73441E-01  3.72137E-01  3.90497E-01  3.73222E-01  3.50210E-01  3.35387E-01  3.72178E-01
   3.48914E-01  3.57755E-01  3.37729E-01  3.18498E-01  3.41405E-01  3.22407E-01  3.03784E-01  3.37509E-01  2.97584E-01  2.92741E-01
   2.84470E-01  3.05236E-01  2.84322E-01  2.99839E-01  3.07502E-01  2.88843E-01  3.01224E-01  3.47387E-01  3.42684E-01  3.23853E-01
   3.71146E-01  3.83682E-01  3.64236E-01  3.84880E-01  4.17391E-01  3.98027E-01  4.09220E-01  4.02700E-01  3.48165E-01  3.48005E-01
   3.67101E-01  2.76591E-01  2.92620E-01  3.32563E-01  3.81765E-01  3.66426E-01  3.92844E-01  3.58534E-01  4.00548E-01  2.85826E-01
   3.01462E-01  2.46974E-01  1.99134E-01  1.86926E-01  1.54913E-01  1.75776E-01  2.06374E-01  2.03223E-01  1.90739E-01  1.94191E-01
   2.12260E-01  2.26952E-01  2.93530E-01  2.71924E-01  3.20512E-01  3.24707E-01  3.54115E-01  3.88425E-01  3.65181E-01  3.73100E-01
   4.16677E-01  4.12517E-01  4.21520E-01  3.95716E-01  4.09277E-01  4.36119E-01  4.45323E-01  4.40014E-01  5.14409E-01  5.12661E-01
   5.28756E-01  5.31597E-01  5.37628E-01  5.10863E-01  4.87620E-01  4.69189E-01  4.54408E-01  4.78986E-01  4.26786E-01  4.02427E-01
   4.01258E-01  4.13444E-01  3.78023E-01  3.35307E-01  3.50451E-01  3.76413E-01  3.23875E-01  3.51818E-01  3.36090E-01  3.88944E-01
   3.42057E-01  3.75021E-01  3.89043E-01  3.80801E-01  4.10465E-01  4.50547E-01  4.57969E-01  4.64091E-01  4.91087E-01  5.19906E-01
   5.56065E-01  5.66408E-01  5.60551E-01  5.64819E-01  5.79627E-01  5.95563E-01  6.09409E-01  6.41125E-01  6.93549E-01  7.32061E-01
   7.23588E-01  7.39011E-01  7.36285E-01  7.42209E-01  6.95668E-01  6.96563E-01  6.41827E-01  6.30659E-01  5.88917E-01  5.56604E-01
   4.58499E-01  5.01075E-01  4.87623E-01  5.13438E-01  4.97006E-01  5.05577E-01  5.76005E-01  6.64841E-01  7.25822E-01  8.13346E-01
   9.21318E-01  9.96321E-01  1.05786E+00  1.07845E+00  1.08462E+00  1.01224E+00  9.80954E-01  9.09006E-01  7.81004E-01  7.47211E-01
   6.55064E-01  5.93452E-01  5.87634E-01  5.61318E-01  5.97216E-01  6.25863E-01  6.76720E-01  7.03392E-01  7.39047E-01  7.86853E-01
   7.94864E-01  8.27652E-01  8.35375E-01  8.33505E-01  7.85282E-01  7.55344E-01  7.38702E-01  7.00928E-01  6.99032E-01  6.94552E-01
   6.53321E-01  6.11306E-01  5.93521E-01  6.58853E-01  6.10384E-01  6.10829E-01  5.93528E-01  6.24885E-01  5.88376E-01  5.90335E-01
   6.11663E-01  6.37105E-01  6.51982E-01  6.17582E-01  6.33511E-01  6.41265E-01  6.12941E-01  6.17251E-01  6.21673E-01  6.22362E-01
   6.10149E-01  5.81761E-01  5.93537E-01  5.95575E-01  6.08655E-01  5.59070E-01  6.36644E-01  6.23338E-01  6.90505E-01  6.98530E-01
   7.50328E-01  7.80969E-01  7.96892E-01  8.58085E-01  8.82340E-01  8.83745E-01  8.77856E-01  9.12074E-01  9.05786E-01  8.62261E-01
   9.22103E-01  9.34054E-01  9.59605E-01  1.02299E+00  1.02755E+00  1.09213E+00  1.14284E+00  1.14773E+00  1.22334E+00  1.30524E+00
   1.38831E+00  1.51895E+00  1.66662E+00  1.80495E+00  2.00880E+00  2.22836E+00  2.49846E+00  2.84200E+00  3.09653E+00  3.34976E+00
   3.40978E+00  3.35023E+00  3.17942E+00  2.87606E+00  2.46827E+00  2.12413E+00  1.75750E+00  1.41908E+00  1.17085E+00  9.97293E-01
   8.48570E-01  7.77675E-01  7.19248E-01  6.76727E-01  6.53541E-01  6.21613E-01  5.50948E-01  5.25175E-01  5.13326E-01  4.53759E-01
   4.62983E-01  4.37762E-01  4.33900E-01  4.30061E-01  4.33839E-01  4.58857E-01  4.23428E-01  4.17517E-01  4.34345E-01  4.23127E-01
   3.82145E-01  3.96206E-01  3.93995E-01  3.70923E-01  3.81622E-01  3.98076E-01  3.36010E-01  3.48655E-01  3.52694E-01  3.44795E-01
   3.29587E-01  3.52375E-01  3.03559E-01  3.34390E-01  3.17607E-01  3.27239E-01  3.06157E-01  2.98061E-01  3.13037E-01  3.10506E-01
   3.09829E-01  3.03556E-01  3.25993E-01  2.96596E-01  2.88646E-01  2.99186E-01  2.67649E-01  3.00026E-01  2.83675E-01  2.68433E-01
   2.81533E-01  2.95988E-01  2.61852E-01  2.50391E-01  3.08916E-01  2.72254E-01  2.93120E-01  3.03688E-01  3.31964E-01  2.93532E-01
   3.18876E-01  2.89935E-01  3.07077E-01  3.06612E-01  3.09419E-01  2.95018E-01  3.14009E-01  3.19058E-01  2.90283E-01  3.38505E-01
   3.11520E-01  3.11969E-01  3.35735E-01  3.61216E-01  3.28244E-01  3.30467E-01  3.45093E-01  3.22604E-01  3.41669E-01  3.63289E-01
   3.21089E-01  3.33542E-01  3.78588E-01  3.51323E-01  3.46316E-01  3.49570E-01  3.75228E-01  3.70298E-01  3.76321E-01  3.53649E-01
   3.42309E-01  3.64137E-01  3.12723E-01  3.15679E-01  3.46463E-01  3.52094E-01  3.57081E-01  3.45008E-01  3.10923E-01  3.22146E-01
   3.01448E-01  3.26477E-01  3.27408E-01  2.67447E-01  2.95059E-01  2.84930E-01  3.06708E-01  3.09491E-01  2.92537E-01  2.85084E-01
   2.99346E-01  3.03227E-01  2.99494E-01  2.87531E-01  3.08940E-01  3.08233E-01  2.99356E-01  3.13194E-01  3.17678E-01  3.42607E-01
   3.28262E-01  3.12383E-01  3.42789E-01  3.14670E-01  2.98038E-01  3.57701E-01  3.55128E-01  3.39678E-01  3.32233E-01  3.79224E-01
   3.72889E-01  3.70949E-01  3.87452E-01  3.92048E-01  3.83447E-01  3.79040E-01  4.10174E-01  4.29575E-01  4.57751E-01  4.18624E-01
   3.99187E-01  4.40292E-01  4.27845E-01  4.07304E-01  4.10404E-01  4.32663E-01  4.06489E-01  4.17751E-01  4.35630E-01  4.23889E-01
   3.88621E-01  4.53700E-01  4.49163E-01  4.43549E-01  4.68772E-01  4.79980E-01  4.81278E-01  4.58221E-01  4.67798E-01  4.41145E-01
   4.14705E-01  4.38869E-01  4.04392E-01  3.60253E-01  3.61934E-01  3.41673E-01  3.39990E-01  3.49653E-01  3.53047E-01  3.55915E-01
   4.02499E-01  3.63197E-01  3.80221E-01  3.61968E-01  3.53322E-01  3.84015E-01  3.35251E-01  3.41833E-01  3.38340E-01  3.57156E-01
   3.27191E-01  3.26490E-01  2.99840E-01  3.26263E-01  2.95450E-01  3.64413E-01  3.12823E-01  3.43435E-01  3.54993E-01  3.20334E-01
   2.96499E-01  3.41378E-01  3.09382E-01  3.21201E-01  2.97709E-01  3.04941E-01  3.01507E-01  3.21304E-01  2.73362E-01  3.19020E-01
   3.02739E-01  2.74968E-01  2.78897E-01  2.74770E-01  2.91049E-01  2.90411E-01  2.41534E-01  2.47836E-01  2.63295E-01  2.51089E-01
   2.33622E-01  2.41432E-01  2.51610E-01  2.06951E-01  2.40980E-01  2.41179E-01  2.41913E-01  2.13976E-01  1.97472E-01  2.00792E-01
   2.41903E-01  2.11457E-01  1.92673E-01  2.16994E-01  2.18853E-01  2.02184E-01  1.96830E-01  2.12738E-01  2.28486E-01  2.20650E-01
   2.14762E-01  1.85954E-01  2.23350E-01  2.17980E-01  2.05992E-01  2.50639E-01  2.44176E-01  2.29329E-01  2.68051E-01  2.71658E-01
   2.48969E-01  2.80488E-01  2.72866E-01  2.92727E-01  2.87943E-01  2.97853E-01  3.02486E-01  3.00157E-01  3.17783E-01  3.88601E-01
   3.46537E-01  3.94113E-01  3.82746E-01  4.14658E-01  4.15542E-01  4.03347E-01  4.40604E-01  4.35891E-01  4.53057E-01  4.54640E-01
   4.62110E-01  4.36156E-01  4.56370E-01  4.81557E-01  4.78681E-01  4.83094E-01  4.96539E-01  4.59562E-01  4.91184E-01  4.87317E-01
   4.68570E-01  4.78676E-01  4.89924E-01  4.65284E-01  4.68171E-01  4.64697E-01  4.42210E-01  4.71780E-01  4.41104E-01  4.76512E-01
   4.22695E-01  3.84844E-01  3.84191E-01  4.03801E-01  3.84214E-01  3.52538E-01  3.39707E-01  3.29783E-01  3.04430E-01  3.12701E-01
   2.90010E-01  2.55418E-01  2.59639E-01  2.39934E-01  2.40798E-01  2.38824E-01  2.32457E-01  2.32142E-01  2.22498E-01  1.88077E-01
   1.89341E-01  2.00637E-01  1.82640E-01  1.82578E-01  2.08063E-01  1.90906E-01  1.42307E-01  1.58360E-01  1.42687E-01  1.68811E-01
   1.62552E-01  1.29834E-01  1.51169E-01  1.16100E-01  1.16244E-01  1.27657E-01  1.32230E-01  1.59858E-01  1.23592E-01  9.48774E-02
   9.93382E-02  1.19773E-01  1.18733E-01  1.18906E-01  1.32471E-01  8.09907E-02  1.28484E-01  1.14641E-01  9.53651E-02  1.23567E-01
   1.03965E-01  7.59837E-02  1.17514E-01  1.07089E-01  1.25163E-01  8.85888E-02  8.26354E-02  1.12931E-01  5.94263E-02  9.40419E-02
   1.03413E-01  1.03968E-01  7.51203E-02  1.01603E-01  7.29213E-02  5.78571E-02  1.20882E-01  8.99090E-02  8.35186E-02  1.12799E-01
   8.67661E-02  7.99351E-02  4.53941E-02  7.66308E-02  9.53544E-02  1.38992E-01  7.75344E-02  1.02353E-01  1.05272E-01  9.10868E-02
   1.11079E-01  7.82896E-02  1.16981E-01  9.16065E-02
 NY points of the fit to the data follow
   3.78167E-01  3.64163E-01  3.54232E-01  3.48535E-01  3.42790E-01  3.39929E-01  3.40775E-01  3.43745E-01  3.48532E-01  3.55063E-01
   3.63762E-01  3.76561E-01  3.95186E-01  4.20392E-01  4.54212E-01  4.99487E-01  5.57315E-01  6.25128E-01  6.96669E-01  7.70688E-01
   8.60534E-01  9.71584E-01  1.08112E+00  1.18335E+00  1.27255E+00  1.32589E+00  1.35980E+00  1.37884E+00  1.36365E+00  1.33777E+00
   1.30514E+00  1.24473E+00  1.17062E+00  1.09289E+00  1.00335E+00  9.12965E-01  8.34023E-01  7.60502E-01  6.95894E-01  6.46780E-01
   6.09657E-01  5.80988E-01  5.61672E-01  5.50514E-01  5.44581E-01  5.43964E-01  5.48642E-01  5.56183E-01  5.65641E-01  5.76020E-01
   5.85127E-01  5.93936E-01  6.03812E-01  6.14442E-01  6.26469E-01  6.43110E-01  6.65367E-01  6.88760E-01  7.11087E-01  7.31964E-01
   7.56603E-01  7.91967E-01  8.28296E-01  8.61988E-01  8.95438E-01  9.18906E-01  9.37475E-01  9.50445E-01  9.48181E-01  9.45551E-01
   9.43959E-01  9.31524E-01  9.13117E-01  8.89268E-01  8.59675E-01  8.30811E-01  8.01714E-01  7.69810E-01  7.40233E-01  7.16727E-01
   6.98660E-01  6.87141E-01  6.83542E-01  6.84940E-01  6.87041E-01  6.87494E-01  6.83857E-01  6.76277E-01  6.69077E-01  6.65335E-01
   6.65691E-01  6.74725E-01  6.95278E-01  7.27024E-01  7.70612E-01  8.21056E-01  8.69185E-01  9.04614E-01  9.18241E-01  9.04271E-01
   8.63375E-01  8.00845E-01  7.26016E-01  6.50172E-01  5.82314E-01  5.29234E-01  4.96290E-01  4.82537E-01  4.88326E-01  5.10080E-01
   5.41965E-01  5.87777E-01  6.51704E-01  7.27064E-01  8.09703E-01  8.98193E-01  9.78889E-01  1.04188E+00  1.08443E+00  1.09549E+00
   1.08488E+00  1.06211E+00  1.01485E+00  9.55887E-01  8.92205E-01  8.18693E-01  7.49742E-01  6.81547E-01  6.16021E-01  5.66240E-01
   5.25270E-01  4.94823E-01  4.79316E-01  4.72768E-01  4.71895E-01  4.75936E-01  4.80723E-01  4.83143E-01  4.83539E-01  4.80112E-01
   4.74366E-01  4.69687E-01  4.62067E-01  4.52477E-01  4.43884E-01  4.33192E-01  4.21447E-01  4.09373E-01  3.97938E-01  3.90626E-01
   3.84799E-01  3.79035E-01  3.73961E-01  3.67770E-01  3.60194E-01  3.51812E-01  3.42886E-01  3.35003E-01  3.30428E-01  3.29397E-01
   3.31953E-01  3.39296E-01  3.49555E-01  3.60011E-01  3.70894E-01  3.79757E-01  3.84751E-01  3.88120E-01  3.90190E-01  3.91442E-01
   3.92092E-01  3.90900E-01  3.84993E-01  3.74100E-01  3.60610E-01  3.43130E-01  3.24740E-01  3.10461E-01  2.99874E-01  2.96064E-01
   3.00730E-01  3.12381E-01  3.30322E-01  3.55116E-01  3.85486E-01  4.15456E-01  4.43202E-01  4.70176E-01  4.98417E-01  5.29425E-01
   5.57417E-01  5.82496E-01  6.02028E-01  6.16399E-01  6.31787E-01  6.42163E-01  6.57204E-01  6.90207E-01  7.34275E-01  7.92402E-01
   8.64314E-01  9.61528E-01  1.09258E+00  1.22435E+00  1.35060E+00  1.46760E+00  1.53410E+00  1.55459E+00  1.52767E+00  1.43086E+00
   1.30595E+00  1.17243E+00  1.02150E+00  8.83251E-01  7.73691E-01  6.84086E-01  6.14436E-01  5.65312E-01  5.28107E-01  4.97954E-01
   4.74111E-01  4.54479E-01  4.37607E-01  4.23803E-01  4.13184E-01  4.05461E-01  4.00489E-01  3.97956E-01  3.97492E-01  3.98913E-01
   4.01835E-01  4.06041E-01  4.11743E-01  4.18866E-01  4.27056E-01  4.35842E-01  4.45328E-01  4.56175E-01  4.69229E-01  4.86520E-01
   5.10514E-01  5.44574E-01  5.94184E-01  6.64947E-01  7.60221E-01  8.76940E-01  1.01010E+00  1.17075E+00  1.36883E+00  1.57501E+00
