 LCModel (Version 6.3-0D) Copyright: S.W. Provencher.          Ref.: Magn. Reson. Med. 30:672-679 (1993).                
 S10_PRESS_35
 Data of: Dept of Radiology, The Johns Hopkins University School of Medicine
 17-March-2020  16:47
 32 lines in following concentration table = NCONC+1
    Conc.  %SD /Cr+PCr  Metabolite                                         
    0.000 999%   0.000 Asc                                                 
    4.809  13%   3.025 Asp                                                 
    5.240   6%   3.297 Cr                                                  
    0.767  45%   0.483 GABA                                                
    0.916  18%   0.576 GPC                                                 
    2.903   5%   1.826 GSH                                                 
    3.172  16%   1.996 Gln                                                 
   17.036   4%  10.718 Glu                                                 
   10.340   4%   6.505 Ins                                                 
    0.534  54%   0.336 Lac                                                 
   18.575   2%  11.686 NAA                                                 
    1.354  19%   0.852 NAAG                                                
    1.377  12%   0.866 PCh                                                 
    7.476   5%   4.703 PCr                                                 
    3.737  19%   2.351 PE                                                  
    0.273  20%   0.172 Scyllo                                              
    2.285  21%   1.437 Tau                                                 
    0.000 999%   0.000 -CrCH2                                              
    2.293   2%   1.443 PCh+GPC                                             
   12.716   1%   8.000 Cr+PCr                                              
   19.929   1%  12.538 NAA+NAAG                                            
   20.208   4%  12.714 Glu+Gln                                             
    0.000 999%   0.000 Lip13a                                              
    0.000 999%   0.000 Lip13b                                              
    0.000 999%   0.000 Lip09                                               
   10.875  14%   6.842 MM09                                                
    2.283  30%   1.436 Lip20                                               
    7.418  30%   4.667 MM20                                                
    6.216  21%   3.910 MM12                                                
    8.206   9%   5.163 MM14                                                
    4.251  32%   2.674 MM17                                                
   6 lines in following misc. output table
  FWHM = 0.036 ppm    S/N =  59                                            
  Data shift = 0.024 ppm                                                   
  Ph:  -4 deg      -3.0 deg/ppm                                            
  alphaB,S = 3.5E-02,   1.9E+02                                            
   26 spline knots.   Ns =10(1)                                            
  ( 3) 2 infls.   ( 1) 1 extrs.                                            
  884 points on ppm-axis = NY
      4.000000     3.996038     3.992076     3.988114     3.984152     3.980190     3.976228     3.972266     3.968304     3.964342
      3.960380     3.956418     3.952456     3.948493     3.944531     3.940569     3.936607     3.932645     3.928683     3.924721
      3.920759     3.916797     3.912835     3.908873     3.904911     3.900949     3.896987     3.893025     3.889063     3.885101
      3.881139     3.877177     3.873215     3.869253     3.865291     3.861329     3.857367     3.853405     3.849442     3.845480
      3.841518     3.837556     3.833594     3.829632     3.825670     3.821708     3.817746     3.813784     3.809822     3.805860
      3.801898     3.797936     3.793974     3.790012     3.786050     3.782088     3.778126     3.774164     3.770202     3.766240
      3.762278     3.758316     3.754354     3.750391     3.746429     3.742467     3.738505     3.734543     3.730581     3.726619
      3.722657     3.718695     3.714733     3.710771     3.706809     3.702847     3.698885     3.694923     3.690961     3.686999
      3.683037     3.679075     3.675113     3.671151     3.667189     3.663227     3.659265     3.655303     3.651340     3.647378
      3.643416     3.639454     3.635492     3.631530     3.627568     3.623606     3.619644     3.615682     3.611720     3.607758
      3.603796     3.599834     3.595872     3.591910     3.587948     3.583986     3.580024     3.576062     3.572100     3.568138
      3.564176     3.560214     3.556252     3.552289     3.548327     3.544365     3.540403     3.536441     3.532479     3.528517
      3.524555     3.520593     3.516631     3.512669     3.508707     3.504745     3.500783     3.496821     3.492859     3.488897
      3.484935     3.480973     3.477011     3.473049     3.469087     3.465125     3.461163     3.457201     3.453238     3.449276
      3.445314     3.441352     3.437390     3.433428     3.429466     3.425504     3.421542     3.417580     3.413618     3.409656
      3.405694     3.401732     3.397770     3.393808     3.389846     3.385884     3.381922     3.377960     3.373998     3.370036
      3.366074     3.362112     3.358150     3.354187     3.350225     3.346263     3.342301     3.338339     3.334377     3.330415
      3.326453     3.322491     3.318529     3.314567     3.310605     3.306643     3.302681     3.298719     3.294757     3.290795
      3.286833     3.282871     3.278909     3.274947     3.270985     3.267023     3.263061     3.259099     3.255136     3.251174
      3.247212     3.243250     3.239288     3.235326     3.231364     3.227402     3.223440     3.219478     3.215516     3.211554
      3.207592     3.203630     3.199668     3.195706     3.191744     3.187782     3.183820     3.179858     3.175896     3.171934
      3.167972     3.164010     3.160048     3.156085     3.152123     3.148161     3.144199     3.140237     3.136275     3.132313
      3.128351     3.124389     3.120427     3.116465     3.112503     3.108541     3.104579     3.100617     3.096655     3.092693
      3.088731     3.084769     3.080807     3.076845     3.072883     3.068921     3.064959     3.060997     3.057034     3.053072
      3.049110     3.045148     3.041186     3.037224     3.033262     3.029300     3.025338     3.021376     3.017414     3.013452
      3.009490     3.005528     3.001566     2.997604     2.993642     2.989680     2.985718     2.981756     2.977794     2.973832
      2.969870     2.965908     2.961946     2.957983     2.954021     2.950059     2.946097     2.942135     2.938173     2.934211
      2.930249     2.926287     2.922325     2.918363     2.914401     2.910439     2.906477     2.902515     2.898553     2.894591
      2.890629     2.886667     2.882705     2.878743     2.874781     2.870819     2.866857     2.862895     2.858932     2.854970
      2.851008     2.847046     2.843084     2.839122     2.835160     2.831198     2.827236     2.823274     2.819312     2.815350
      2.811388     2.807426     2.803464     2.799502     2.795540     2.791578     2.787616     2.783654     2.779692     2.775730
      2.771768     2.767806     2.763844     2.759881     2.755919     2.751957     2.747995     2.744033     2.740071     2.736109
      2.732147     2.728185     2.724223     2.720261     2.716299     2.712337     2.708375     2.704413     2.700451     2.696489
      2.692527     2.688565     2.684603     2.680641     2.676679     2.672717     2.668755     2.664793     2.660830     2.656868
      2.652906     2.648944     2.644982     2.641020     2.637058     2.633096     2.629134     2.625172     2.621210     2.617248
      2.613286     2.609324     2.605362     2.601400     2.597438     2.593476     2.589514     2.585552     2.581590     2.577628
      2.573666     2.569704     2.565742     2.561779     2.557817     2.553855     2.549893     2.545931     2.541969     2.538007
      2.534045     2.530083     2.526121     2.522159     2.518197     2.514235     2.510273     2.506311     2.502349     2.498387
      2.494425     2.490463     2.486501     2.482539     2.478577     2.474615     2.470653     2.466691     2.462729     2.458766
      2.454804     2.450842     2.446880     2.442918     2.438956     2.434994     2.431032     2.427070     2.423108     2.419146
      2.415184     2.411222     2.407260     2.403298     2.399336     2.395374     2.391412     2.387450     2.383488     2.379526
      2.375564     2.371602     2.367640     2.363678     2.359715     2.355753     2.351791     2.347829     2.343867     2.339905
      2.335943     2.331981     2.328019     2.324057     2.320095     2.316133     2.312171     2.308209     2.304247     2.300285
      2.296323     2.292361     2.288399     2.284437     2.280475     2.276513     2.272551     2.268589     2.264627     2.260664
      2.256702     2.252740     2.248778     2.244816     2.240854     2.236892     2.232930     2.228968     2.225006     2.221044
      2.217082     2.213120     2.209158     2.205196     2.201234     2.197272     2.193310     2.189348     2.185386     2.181424
      2.177462     2.173500     2.169538     2.165576     2.161613     2.157651     2.153689     2.149727     2.145765     2.141803
      2.137841     2.133879     2.129917     2.125955     2.121993     2.118031     2.114069     2.110107     2.106145     2.102183
      2.098221     2.094259     2.090297     2.086335     2.082373     2.078411     2.074449     2.070487     2.066525     2.062562
      2.058600     2.054638     2.050676     2.046714     2.042752     2.038790     2.034828     2.030866     2.026904     2.022942
      2.018980     2.015018     2.011056     2.007094     2.003132     1.999170     1.995208     1.991246     1.987284     1.983322
      1.979360     1.975398     1.971436     1.967474     1.963511     1.959549     1.955587     1.951625     1.947663     1.943701
      1.939739     1.935777     1.931815     1.927853     1.923891     1.919929     1.915967     1.912005     1.908043     1.904081
      1.900119     1.896157     1.892195     1.888233     1.884271     1.880309     1.876347     1.872385     1.868423     1.864460
      1.860498     1.856536     1.852574     1.848612     1.844650     1.840688     1.836726     1.832764     1.828802     1.824840
      1.820878     1.816916     1.812954     1.808992     1.805030     1.801068     1.797106     1.793144     1.789182     1.785220
      1.781258     1.777296     1.773334     1.769372     1.765409     1.761447     1.757485     1.753523     1.749561     1.745599
      1.741637     1.737675     1.733713     1.729751     1.725789     1.721827     1.717865     1.713903     1.709941     1.705979
      1.702017     1.698055     1.694093     1.690131     1.686169     1.682207     1.678245     1.674283     1.670321     1.666358
      1.662396     1.658434     1.654472     1.650510     1.646548     1.642586     1.638624     1.634662     1.630700     1.626738
      1.622776     1.618814     1.614852     1.610890     1.606928     1.602966     1.599004     1.595042     1.591080     1.587118
      1.583156     1.579194     1.575232     1.571270     1.567307     1.563345     1.559383     1.555421     1.551459     1.547497
      1.543535     1.539573     1.535611     1.531649     1.527687     1.523725     1.519763     1.515801     1.511839     1.507877
      1.503915     1.499953     1.495991     1.492029     1.488067     1.484105     1.480143     1.476181     1.472219     1.468256
      1.464294     1.460332     1.456370     1.452408     1.448446     1.444484     1.440522     1.436560     1.432598     1.428636
      1.424674     1.420712     1.416750     1.412788     1.408826     1.404864     1.400902     1.396940     1.392978     1.389016
      1.385054     1.381092     1.377130     1.373168     1.369205     1.365243     1.361281     1.357319     1.353357     1.349395
      1.345433     1.341471     1.337509     1.333547     1.329585     1.325623     1.321661     1.317699     1.313737     1.309775
      1.305813     1.301851     1.297889     1.293927     1.289965     1.286003     1.282041     1.278079     1.274117     1.270154
      1.266192     1.262230     1.258268     1.254306     1.250344     1.246382     1.242420     1.238458     1.234496     1.230534
      1.226572     1.222610     1.218648     1.214686     1.210724     1.206762     1.202800     1.198838     1.194876     1.190914
      1.186952     1.182990     1.179028     1.175066     1.171103     1.167141     1.163179     1.159217     1.155255     1.151293
      1.147331     1.143369     1.139407     1.135445     1.131483     1.127521     1.123559     1.119597     1.115635     1.111673
      1.107711     1.103749     1.099787     1.095825     1.091863     1.087901     1.083939     1.079977     1.076015     1.072052
      1.068090     1.064128     1.060166     1.056204     1.052242     1.048280     1.044318     1.040356     1.036394     1.032432
      1.028470     1.024508     1.020546     1.016584     1.012622     1.008660     1.004698     1.000736     0.996774     0.992812
      0.988850     0.984888     0.980926     0.976964     0.973001     0.969039     0.965077     0.961115     0.957153     0.953191
      0.949229     0.945267     0.941305     0.937343     0.933381     0.929419     0.925457     0.921495     0.917533     0.913571
      0.909609     0.905647     0.901685     0.897723     0.893761     0.889799     0.885837     0.881875     0.877913     0.873950
      0.869988     0.866026     0.862064     0.858102     0.854140     0.850178     0.846216     0.842254     0.838292     0.834330
      0.830368     0.826406     0.822444     0.818482     0.814520     0.810558     0.806596     0.802634     0.798672     0.794710
      0.790748     0.786786     0.782824     0.778862     0.774899     0.770937     0.766975     0.763013     0.759051     0.755089
      0.751127     0.747165     0.743203     0.739241     0.735279     0.731317     0.727355     0.723393     0.719431     0.715469
      0.711507     0.707545     0.703583     0.699621     0.695659     0.691697     0.687735     0.683773     0.679811     0.675848
      0.671886     0.667924     0.663962     0.660000     0.656038     0.652076     0.648114     0.644152     0.640190     0.636228
      0.632266     0.628304     0.624342     0.620380     0.616418     0.612456     0.608494     0.604532     0.600570     0.596608
      0.592646     0.588684     0.584722     0.580760     0.576797     0.572835     0.568873     0.564911     0.560949     0.556987
      0.553025     0.549063     0.545101     0.541139     0.537177     0.533215     0.529253     0.525291     0.521329     0.517367
      0.513405     0.509443     0.505481     0.501519
 NY phased data points follow
   5.91101E-01  6.21852E-01  5.74584E-01  5.91994E-01  6.22705E-01  6.00344E-01  5.83907E-01  5.91497E-01  5.92510E-01  6.36396E-01
   6.38867E-01  6.57122E-01  7.08565E-01  7.48595E-01  7.90112E-01  8.13615E-01  8.80171E-01  9.64194E-01  1.03015E+00  1.10997E+00
   1.15314E+00  1.26342E+00  1.31443E+00  1.39448E+00  1.45272E+00  1.49445E+00  1.54838E+00  1.57218E+00  1.55998E+00  1.55492E+00
   1.48512E+00  1.44313E+00  1.38301E+00  1.27003E+00  1.20240E+00  1.12158E+00  1.04183E+00  1.01189E+00  9.06597E-01  8.80585E-01
   8.38922E-01  7.93513E-01  7.52256E-01  7.29598E-01  7.49458E-01  7.17633E-01  7.61286E-01  7.40436E-01  7.19242E-01  7.55205E-01
   7.49653E-01  7.99716E-01  7.80280E-01  7.79832E-01  8.09108E-01  8.08068E-01  8.47858E-01  8.17881E-01  8.58946E-01  9.20119E-01
   8.94554E-01  8.78686E-01  9.43404E-01  9.65389E-01  9.68900E-01  1.01017E+00  1.04379E+00  1.05503E+00  1.05156E+00  1.06612E+00
   1.00132E+00  1.01906E+00  1.01850E+00  9.70401E-01  9.20719E-01  9.22083E-01  8.96345E-01  8.42894E-01  8.10743E-01  7.90390E-01
   7.83533E-01  8.21625E-01  7.88389E-01  7.65143E-01  7.69872E-01  7.54288E-01  7.62891E-01  7.68892E-01  7.68887E-01  7.77346E-01
   7.83612E-01  8.13727E-01  8.44082E-01  8.55554E-01  8.90806E-01  9.36922E-01  9.28151E-01  9.72624E-01  9.77679E-01  9.34076E-01
   9.28585E-01  8.70288E-01  8.32834E-01  7.56167E-01  7.12297E-01  6.88348E-01  6.77766E-01  6.39593E-01  6.12854E-01  6.45923E-01
   6.63160E-01  7.12238E-01  7.67927E-01  8.34913E-01  8.70658E-01  9.76480E-01  1.02032E+00  1.05021E+00  1.11102E+00  1.14324E+00
   1.13296E+00  1.12528E+00  1.05911E+00  1.01429E+00  9.55857E-01  9.03924E-01  8.15579E-01  7.85104E-01  7.09938E-01  6.62638E-01
   6.36335E-01  5.75355E-01  5.51249E-01  5.32033E-01  5.49248E-01  5.23380E-01  5.05949E-01  5.31458E-01  5.18235E-01  4.97384E-01
   5.36996E-01  5.18257E-01  5.52697E-01  5.30317E-01  5.44580E-01  4.94448E-01  4.99096E-01  4.94384E-01  4.87433E-01  4.49924E-01
   4.71938E-01  4.38612E-01  4.67687E-01  4.67462E-01  4.00788E-01  4.10627E-01  4.36606E-01  3.97702E-01  3.95548E-01  3.66326E-01
   3.94987E-01  3.89778E-01  3.75875E-01  3.94258E-01  4.29079E-01  4.08188E-01  4.36129E-01  4.35817E-01  4.44223E-01  4.36550E-01
   4.42371E-01  4.52984E-01  4.42400E-01  4.57219E-01  3.90589E-01  3.96186E-01  3.86768E-01  3.41821E-01  3.42429E-01  3.55518E-01
   3.79293E-01  3.55267E-01  3.85004E-01  3.67681E-01  4.15108E-01  4.49518E-01  4.71818E-01  5.26344E-01  5.31390E-01  5.81281E-01
   5.77863E-01  6.04584E-01  6.67136E-01  7.04692E-01  7.24355E-01  6.92318E-01  7.35974E-01  7.43727E-01  7.97711E-01  8.67311E-01
   8.94216E-01  9.59127E-01  1.07825E+00  1.13910E+00  1.23327E+00  1.28906E+00  1.35912E+00  1.38462E+00  1.35595E+00  1.28620E+00
   1.23404E+00  1.12763E+00  1.03012E+00  9.08029E-01  8.27241E-01  7.51331E-01  6.61784E-01  6.23127E-01  5.61650E-01  5.43522E-01
   5.09558E-01  5.21307E-01  4.82236E-01  4.61774E-01  4.36141E-01  4.35786E-01  4.03170E-01  4.15919E-01  4.25002E-01  3.90638E-01
   3.92973E-01  3.89465E-01  4.18914E-01  4.03511E-01  4.12385E-01  4.39760E-01  4.61859E-01  4.45966E-01  4.85405E-01  5.01029E-01
   5.66242E-01  6.20408E-01  6.65607E-01  7.85332E-01  8.47053E-01  9.57084E-01  1.12830E+00  1.26265E+00  1.39242E+00  1.64422E+00
   1.81052E+00  1.96562E+00  2.06709E+00  2.12162E+00  2.08080E+00  2.01146E+00  1.88377E+00  1.76048E+00  1.54389E+00  1.38195E+00
   1.20255E+00  1.06115E+00  9.29693E-01  8.15200E-01  7.08527E-01  6.80982E-01  6.00034E-01  5.54980E-01  5.48075E-01  5.32641E-01
   5.12332E-01  4.91065E-01  4.44877E-01  4.63912E-01  4.28148E-01  4.18385E-01  4.41924E-01  4.03844E-01  4.31694E-01  4.22947E-01
   4.44759E-01  4.08259E-01  4.14346E-01  3.71916E-01  3.84070E-01  4.02395E-01  3.93288E-01  3.47870E-01  3.57937E-01  3.44372E-01
   3.43268E-01  3.17862E-01  3.13891E-01  3.19081E-01  3.16854E-01  2.80287E-01  2.86862E-01  2.44557E-01  2.80093E-01  2.99324E-01
   3.03630E-01  2.78697E-01  2.70545E-01  2.75610E-01  3.09364E-01  2.94245E-01  3.12777E-01  2.98637E-01  3.23644E-01  3.54852E-01
   3.27347E-01  3.75145E-01  3.95812E-01  4.29669E-01  4.38288E-01  4.06043E-01  4.28204E-01  4.01190E-01  3.90047E-01  3.87341E-01
   3.39963E-01  3.56133E-01  3.65137E-01  3.39118E-01  3.41797E-01  3.77637E-01  3.77217E-01  3.67876E-01  3.57946E-01  3.09367E-01
   3.16205E-01  2.57906E-01  2.41953E-01  2.14662E-01  2.12986E-01  2.08109E-01  2.11563E-01  2.23512E-01  1.89149E-01  2.12072E-01
   2.37137E-01  2.59334E-01  2.88047E-01  3.15145E-01  3.28586E-01  3.68112E-01  3.56381E-01  3.84242E-01  4.03145E-01  4.03406E-01
   4.31150E-01  4.27068E-01  4.37759E-01  4.34487E-01  4.43908E-01  4.71306E-01  4.96982E-01  5.15800E-01  5.36689E-01  5.28546E-01
   5.78479E-01  5.93278E-01  5.61380E-01  5.59490E-01  5.65027E-01  5.28101E-01  5.30884E-01  5.18123E-01  4.68754E-01  4.81650E-01
   4.21911E-01  4.24503E-01  4.21097E-01  3.72101E-01  3.53206E-01  3.50476E-01  3.31185E-01  3.49697E-01  3.68594E-01  3.48568E-01
   3.54049E-01  3.81355E-01  3.80111E-01  3.90722E-01  4.16526E-01  4.63310E-01  4.68632E-01  5.30430E-01  5.18579E-01  5.58293E-01
   5.79130E-01  6.22669E-01  6.09832E-01  6.16716E-01  6.66720E-01  6.30930E-01  6.95736E-01  7.14992E-01  7.41004E-01  7.52813E-01
   7.67693E-01  7.79382E-01  7.63617E-01  7.79369E-01  7.34429E-01  7.02467E-01  6.91489E-01  6.43414E-01  6.01560E-01  5.71976E-01
   5.50925E-01  5.46233E-01  5.46080E-01  5.57552E-01  5.84678E-01  5.96002E-01  6.60191E-01  7.10557E-01  7.95711E-01  8.53423E-01
   9.14072E-01  9.68008E-01  9.88322E-01  1.01691E+00  9.61984E-01  9.83063E-01  9.18827E-01  9.14892E-01  8.15483E-01  7.84033E-01
   7.23886E-01  6.93285E-01  6.47892E-01  6.40022E-01  6.44320E-01  6.57354E-01  6.82682E-01  7.16157E-01  7.38458E-01  7.84069E-01
   8.15506E-01  8.30934E-01  8.54754E-01  8.39420E-01  8.10735E-01  7.67155E-01  7.72014E-01  7.38032E-01  7.34033E-01  7.09819E-01
   6.84328E-01  6.56103E-01  6.35824E-01  6.53188E-01  6.42539E-01  6.31814E-01  6.35394E-01  6.15296E-01  6.47524E-01  6.16666E-01
   6.17972E-01  6.11037E-01  6.38701E-01  6.18134E-01  6.71858E-01  6.84837E-01  6.86766E-01  6.80963E-01  6.61680E-01  6.47784E-01
   6.19013E-01  6.51869E-01  6.40787E-01  5.88460E-01  6.04722E-01  6.53305E-01  6.46007E-01  6.67333E-01  6.66395E-01  7.13432E-01
   7.65530E-01  7.95332E-01  8.22853E-01  8.17501E-01  8.80982E-01  8.70340E-01  8.95547E-01  8.91484E-01  8.82284E-01  9.12688E-01
   9.36844E-01  9.15405E-01  9.65607E-01  9.81989E-01  1.02598E+00  1.09224E+00  1.12044E+00  1.20921E+00  1.31703E+00  1.42019E+00
   1.54897E+00  1.67550E+00  1.84684E+00  1.95739E+00  2.16402E+00  2.38065E+00  2.67310E+00  2.88956E+00  3.06639E+00  3.20881E+00
   3.27685E+00  3.19926E+00  3.06463E+00  2.78744E+00  2.49806E+00  2.17449E+00  1.85832E+00  1.56135E+00  1.33901E+00  1.10380E+00
   9.79448E-01  8.45389E-01  7.47725E-01  6.91723E-01  6.08372E-01  6.57373E-01  5.78975E-01  5.60635E-01  5.33769E-01  4.78362E-01
   4.64168E-01  4.31346E-01  4.41162E-01  3.65824E-01  3.94896E-01  3.60415E-01  3.96208E-01  3.54008E-01  3.29250E-01  3.54063E-01
   3.69500E-01  3.58344E-01  3.63623E-01  3.69210E-01  3.32504E-01  3.53253E-01  3.31028E-01  2.95393E-01  2.89195E-01  3.07667E-01
   3.15039E-01  3.31635E-01  3.00724E-01  3.00934E-01  3.02710E-01  2.93983E-01  3.05441E-01  3.05381E-01  3.16511E-01  2.68614E-01
   2.97753E-01  2.74973E-01  2.77392E-01  2.76299E-01  2.53848E-01  2.69985E-01  2.76555E-01  2.80809E-01  2.67872E-01  2.68632E-01
   2.65637E-01  2.57582E-01  2.70848E-01  2.77222E-01  2.83422E-01  2.47767E-01  2.76133E-01  2.61734E-01  2.58763E-01  2.68659E-01
   2.85792E-01  2.40308E-01  2.44764E-01  2.49001E-01  2.72666E-01  2.49937E-01  2.63561E-01  2.60583E-01  2.62365E-01  2.52502E-01
   2.78465E-01  2.53087E-01  3.13135E-01  2.73063E-01  2.99404E-01  2.89933E-01  2.62332E-01  2.91434E-01  2.93336E-01  2.81048E-01
   2.84800E-01  3.02402E-01  2.96872E-01  3.00537E-01  2.96999E-01  2.93120E-01  2.89452E-01  2.65854E-01  2.74622E-01  2.95613E-01
   3.19768E-01  2.90798E-01  2.99168E-01  3.16870E-01  2.99225E-01  2.87316E-01  2.45275E-01  2.65527E-01  2.81657E-01  2.50997E-01
   2.83341E-01  2.65748E-01  2.41517E-01  2.56446E-01  2.38820E-01  2.26394E-01  2.23909E-01  1.96683E-01  1.89263E-01  2.16601E-01
   2.04508E-01  2.15773E-01  2.18958E-01  1.85696E-01  2.17047E-01  2.32897E-01  2.22635E-01  2.33270E-01  2.26342E-01  1.99434E-01
   2.18131E-01  2.68517E-01  2.11581E-01  2.71892E-01  2.45560E-01  2.68655E-01  2.80373E-01  2.60753E-01  2.72864E-01  2.76388E-01
   3.02367E-01  2.68784E-01  3.23991E-01  3.02055E-01  3.29658E-01  3.32543E-01  3.46949E-01  3.49838E-01  3.28008E-01  3.55466E-01
   3.65655E-01  3.76553E-01  3.30800E-01  3.68460E-01  3.93417E-01  3.76386E-01  3.96628E-01  4.06175E-01  4.08207E-01  4.10473E-01
   4.32049E-01  4.32485E-01  4.34151E-01  4.37809E-01  4.40544E-01  4.21837E-01  4.20862E-01  4.57248E-01  4.16022E-01  4.18478E-01
   4.17351E-01  3.86363E-01  3.84703E-01  4.02920E-01  3.81160E-01  3.55442E-01  3.48951E-01  3.52947E-01  3.58056E-01  3.83126E-01
   3.59291E-01  3.46181E-01  3.64464E-01  3.56447E-01  3.58007E-01  3.47292E-01  3.63158E-01  3.51760E-01  3.37461E-01  3.17809E-01
   3.55220E-01  3.54326E-01  3.51399E-01  3.34014E-01  3.38828E-01  3.22041E-01  3.49824E-01  3.41673E-01  3.44974E-01  3.43551E-01
   3.41051E-01  3.38333E-01  3.45486E-01  3.70934E-01  3.53348E-01  3.27447E-01  3.51070E-01  3.64546E-01  3.43123E-01  3.38722E-01
   3.66704E-01  3.38724E-01  3.42318E-01  3.56798E-01  3.29729E-01  3.37935E-01  3.61113E-01  3.37376E-01  3.39735E-01  3.17330E-01
   3.39989E-01  3.28072E-01  3.04952E-01  2.87878E-01  3.09249E-01  2.91568E-01  3.09510E-01  3.04938E-01  2.85134E-01  3.14795E-01
   2.81738E-01  2.79805E-01  2.87812E-01  3.19497E-01  2.87211E-01  2.96173E-01  3.03564E-01  2.90535E-01  3.12175E-01  3.14116E-01
   2.86786E-01  3.13793E-01  3.28438E-01  3.49954E-01  3.30721E-01  3.53887E-01  3.53436E-01  3.61273E-01  3.53568E-01  3.33047E-01
   3.54136E-01  3.70857E-01  3.82923E-01  3.80232E-01  4.13677E-01  4.01549E-01  3.86407E-01  4.48571E-01  4.28875E-01  4.48119E-01
   4.57869E-01  4.79114E-01  4.78415E-01  4.65193E-01  5.10416E-01  5.26453E-01  5.16496E-01  5.27076E-01  5.35731E-01  5.04353E-01
   5.14707E-01  5.46614E-01  5.32902E-01  5.26467E-01  5.56930E-01  5.56790E-01  5.57652E-01  5.55741E-01  5.51614E-01  5.55846E-01
   5.25814E-01  5.47682E-01  5.85415E-01  5.29187E-01  5.43500E-01  5.32605E-01  5.44257E-01  5.07427E-01  5.02001E-01  5.05254E-01
   4.95365E-01  5.05160E-01  4.84427E-01  4.40623E-01  4.56888E-01  4.38161E-01  4.10340E-01  4.38889E-01  3.92639E-01  4.11722E-01
   3.54566E-01  3.64159E-01  3.48550E-01  3.40988E-01  3.66679E-01  3.46424E-01  3.51136E-01  2.96692E-01  3.03449E-01  2.81722E-01
   2.94187E-01  2.93744E-01  2.53493E-01  2.70737E-01  2.52407E-01  2.75824E-01  2.32291E-01  2.82542E-01  2.33005E-01  2.41250E-01
   2.69794E-01  2.27273E-01  2.13537E-01  2.27729E-01  2.37653E-01  2.48037E-01  2.16023E-01  2.28059E-01  1.80495E-01  2.16756E-01
   2.26455E-01  1.97591E-01  2.43452E-01  2.02816E-01  1.97756E-01  2.26671E-01  2.02747E-01  1.67734E-01  2.11394E-01  2.08070E-01
   1.66105E-01  1.68279E-01  1.87803E-01  1.91453E-01  1.95983E-01  1.64435E-01  1.74617E-01  1.78838E-01  1.86616E-01  1.64974E-01
   1.77459E-01  1.86145E-01  1.90473E-01  1.78976E-01  1.51011E-01  1.89464E-01  1.53347E-01  2.10429E-01  1.87897E-01  1.77781E-01
   1.58828E-01  1.84179E-01  1.74821E-01  1.87335E-01  1.78514E-01  1.60232E-01  1.40846E-01  1.74188E-01  1.69376E-01  1.68450E-01
   1.47701E-01  1.40933E-01  1.72368E-01  1.39834E-01
 NY points of the fit to the data follow
   6.43398E-01  6.29879E-01  6.18672E-01  6.10089E-01  6.04310E-01  6.01435E-01  6.01446E-01  6.04144E-01  6.09341E-01  6.17233E-01
   6.28592E-01  6.44681E-01  6.67314E-01  6.98851E-01  7.41146E-01  7.93523E-01  8.53149E-01  9.18651E-01  9.91625E-01  1.07443E+00
   1.16706E+00  1.26541E+00  1.36158E+00  1.44616E+00  1.51199E+00  1.55612E+00  1.57901E+00  1.58279E+00  1.56987E+00  1.54219E+00
   1.50125E+00  1.44846E+00  1.38546E+00  1.31433E+00  1.23758E+00  1.15809E+00  1.07887E+00  1.00294E+00  9.33029E-01  8.71273E-01
   8.19147E-01  7.77378E-01  7.45854E-01  7.23767E-01  7.09945E-01  7.03127E-01  7.02019E-01  7.05262E-01  7.11467E-01  7.19364E-01
   7.28022E-01  7.37193E-01  7.47512E-01  7.60088E-01  7.75588E-01  7.93377E-01  8.12058E-01  8.31159E-01  8.51688E-01  8.75121E-01
   9.01947E-01  9.31049E-01  9.60338E-01  9.87706E-01  1.01134E+00  1.02986E+00  1.04262E+00  1.04972E+00  1.05149E+00  1.04790E+00
   1.03859E+00  1.02347E+00  1.00331E+00  9.79544E-01  9.53535E-01  9.26137E-01  8.98001E-01  8.70159E-01  8.44213E-01  8.21958E-01
   8.04701E-01  7.92731E-01  7.85288E-01  7.80951E-01  7.78230E-01  7.76140E-01  7.74441E-01  7.73476E-01  7.73877E-01  7.76464E-01
   7.82372E-01  7.93093E-01  8.10099E-01  8.33977E-01  8.63456E-01  8.94965E-01  9.23171E-01  9.42235E-01  9.47262E-01  9.35531E-01
   9.07139E-01  8.64947E-01  8.13962E-01  7.60389E-01  7.10637E-01  6.70270E-01  6.42954E-01  6.30045E-01  6.31450E-01  6.46769E-01
   6.75573E-01  7.17201E-01  7.70393E-01  8.32758E-01  9.00311E-01  9.67356E-01  1.02762E+00  1.07585E+00  1.10859E+00  1.12405E+00
   1.12184E+00  1.10268E+00  1.06838E+00  1.02168E+00  9.66018E-01  9.05097E-01  8.42506E-01  7.81409E-01  7.24536E-01  6.74243E-01
   6.32297E-01  5.99624E-01  5.76202E-01  5.61094E-01  5.52631E-01  5.48663E-01  5.47024E-01  5.46029E-01  5.44606E-01  5.42069E-01
   5.37973E-01  5.32108E-01  5.24521E-01  5.15414E-01  5.05006E-01  4.93495E-01  4.81273E-01  4.69082E-01  4.57863E-01  4.48378E-01
   4.40936E-01  4.35346E-01  4.31065E-01  4.27431E-01  4.23829E-01  4.19791E-01  4.15153E-01  4.10160E-01  4.05438E-01  4.01877E-01
   4.00387E-01  4.01601E-01  4.05614E-01  4.11854E-01  4.19229E-01  4.26535E-01  4.32865E-01  4.37753E-01  4.40951E-01  4.42124E-01
   4.40790E-01  4.36508E-01  4.29108E-01  4.18839E-01  4.06429E-01  3.93069E-01  3.80254E-01  3.69529E-01  3.62243E-01  3.59504E-01
   3.62291E-01  3.71424E-01  3.87058E-01  4.08158E-01  4.33007E-01  4.60130E-01  4.88531E-01  5.17540E-01  5.46471E-01  5.74295E-01
   5.99791E-01  6.22054E-01  6.41007E-01  6.57809E-01  6.74981E-01  6.95698E-01  7.22096E-01  7.54776E-01  7.94727E-01  8.44210E-01
   9.05427E-01  9.78897E-01  1.06237E+00  1.15029E+00  1.23430E+00  1.30469E+00  1.35214E+00  1.36936E+00  1.35274E+00  1.30334E+00
   1.22667E+00  1.13125E+00  1.02682E+00  9.22524E-01  8.25731E-01  7.41205E-01  6.70899E-01  6.14344E-01  5.69566E-01  5.34082E-01
   5.05565E-01  4.82188E-01  4.62738E-01  4.46537E-01  4.33276E-01  4.22842E-01  4.15165E-01  4.10122E-01  4.07519E-01  4.07131E-01
   4.08745E-01  4.12208E-01  4.17475E-01  4.24615E-01  4.33786E-01  4.45253E-01  4.59473E-01  4.77243E-01  4.99918E-01  5.29685E-01
   5.69738E-01  6.23657E-01  6.93145E-01  7.76963E-01  8.74799E-01  9.89516E-01  1.12372E+00  1.27654E+00  1.44318E+00  1.61495E+00
