 LCModel (Version 6.3-0D) Copyright: S.W. Provencher.          Ref.: Magn. Reson. Med. 30:672-679 (1993).                
 S12_PRESS_35
 Data of: Dept of Radiology, The Johns Hopkins University School of Medicine
 17-March-2020  16:49
 32 lines in following concentration table = NCONC+1
    Conc.  %SD /Cr+PCr  Metabolite                                         
    0.196 165%   0.135 Asc                                                 
    3.082  18%   2.135 Asp                                                 
    6.573   5%   4.553 Cr                                                  
    0.864  35%   0.599 GABA                                                
    0.561  31%   0.389 GPC                                                 
    2.439   6%   1.690 GSH                                                 
    3.830  12%   2.653 Gln                                                 
   17.401   4%  12.055 Glu                                                 
    9.551   4%   6.616 Ins                                                 
    1.395  18%   0.967 Lac                                                 
   17.736   2%  12.287 NAA                                                 
    1.424  16%   0.986 NAAG                                                
    1.711  11%   1.185 PCh                                                 
    4.975   6%   3.447 PCr                                                 
    3.716  17%   2.575 PE                                                  
    0.283  17%   0.196 Scyllo                                              
    1.891  21%   1.310 Tau                                                 
    0.000 999%   0.000 -CrCH2                                              
    2.272   2%   1.574 PCh+GPC                                             
   11.548   1%   8.000 Cr+PCr                                              
   19.160   1%  13.273 NAA+NAAG                                            
   21.231   4%  14.708 Glu+Gln                                             
    1.526 265%   1.057 Lip13a                                              
    0.000 999%   0.000 Lip13b                                              
 5.11E-02 999% 3.5E-02 Lip09                                               
   11.994  17%   8.309 MM09                                                
    0.389 317%   0.269 Lip20                                               
    7.569  30%   5.243 MM20                                                
    7.171  21%   4.968 MM12                                                
   10.209  27%   7.073 MM14                                                
    4.175  34%   2.892 MM17                                                
   6 lines in following misc. output table
  FWHM = 0.028 ppm    S/N =  59                                            
  Data shift = 0.024 ppm                                                   
  Ph:  -8 deg      -4.2 deg/ppm                                            
  alphaB,S = 3.8E-02,   4.0E-01                                            
   26 spline knots.   Ns = 8(1)                                            
   2 inflections.     1 extrema                                            
  884 points on ppm-axis = NY
      4.000000     3.996038     3.992076     3.988114     3.984152     3.980190     3.976228     3.972266     3.968304     3.964342
      3.960380     3.956418     3.952456     3.948493     3.944531     3.940569     3.936607     3.932645     3.928683     3.924721
      3.920759     3.916797     3.912835     3.908873     3.904911     3.900949     3.896987     3.893025     3.889063     3.885101
      3.881139     3.877177     3.873215     3.869253     3.865291     3.861329     3.857367     3.853405     3.849442     3.845480
      3.841518     3.837556     3.833594     3.829632     3.825670     3.821708     3.817746     3.813784     3.809822     3.805860
      3.801898     3.797936     3.793974     3.790012     3.786050     3.782088     3.778126     3.774164     3.770202     3.766240
      3.762278     3.758316     3.754354     3.750391     3.746429     3.742467     3.738505     3.734543     3.730581     3.726619
      3.722657     3.718695     3.714733     3.710771     3.706809     3.702847     3.698885     3.694923     3.690961     3.686999
      3.683037     3.679075     3.675113     3.671151     3.667189     3.663227     3.659265     3.655303     3.651340     3.647378
      3.643416     3.639454     3.635492     3.631530     3.627568     3.623606     3.619644     3.615682     3.611720     3.607758
      3.603796     3.599834     3.595872     3.591910     3.587948     3.583986     3.580024     3.576062     3.572100     3.568138
      3.564176     3.560214     3.556252     3.552289     3.548327     3.544365     3.540403     3.536441     3.532479     3.528517
      3.524555     3.520593     3.516631     3.512669     3.508707     3.504745     3.500783     3.496821     3.492859     3.488897
      3.484935     3.480973     3.477011     3.473049     3.469087     3.465125     3.461163     3.457201     3.453238     3.449276
      3.445314     3.441352     3.437390     3.433428     3.429466     3.425504     3.421542     3.417580     3.413618     3.409656
      3.405694     3.401732     3.397770     3.393808     3.389846     3.385884     3.381922     3.377960     3.373998     3.370036
      3.366074     3.362112     3.358150     3.354187     3.350225     3.346263     3.342301     3.338339     3.334377     3.330415
      3.326453     3.322491     3.318529     3.314567     3.310605     3.306643     3.302681     3.298719     3.294757     3.290795
      3.286833     3.282871     3.278909     3.274947     3.270985     3.267023     3.263061     3.259099     3.255136     3.251174
      3.247212     3.243250     3.239288     3.235326     3.231364     3.227402     3.223440     3.219478     3.215516     3.211554
      3.207592     3.203630     3.199668     3.195706     3.191744     3.187782     3.183820     3.179858     3.175896     3.171934
      3.167972     3.164010     3.160048     3.156085     3.152123     3.148161     3.144199     3.140237     3.136275     3.132313
      3.128351     3.124389     3.120427     3.116465     3.112503     3.108541     3.104579     3.100617     3.096655     3.092693
      3.088731     3.084769     3.080807     3.076845     3.072883     3.068921     3.064959     3.060997     3.057034     3.053072
      3.049110     3.045148     3.041186     3.037224     3.033262     3.029300     3.025338     3.021376     3.017414     3.013452
      3.009490     3.005528     3.001566     2.997604     2.993642     2.989680     2.985718     2.981756     2.977794     2.973832
      2.969870     2.965908     2.961946     2.957983     2.954021     2.950059     2.946097     2.942135     2.938173     2.934211
      2.930249     2.926287     2.922325     2.918363     2.914401     2.910439     2.906477     2.902515     2.898553     2.894591
      2.890629     2.886667     2.882705     2.878743     2.874781     2.870819     2.866857     2.862895     2.858932     2.854970
      2.851008     2.847046     2.843084     2.839122     2.835160     2.831198     2.827236     2.823274     2.819312     2.815350
      2.811388     2.807426     2.803464     2.799502     2.795540     2.791578     2.787616     2.783654     2.779692     2.775730
      2.771768     2.767806     2.763844     2.759881     2.755919     2.751957     2.747995     2.744033     2.740071     2.736109
      2.732147     2.728185     2.724223     2.720261     2.716299     2.712337     2.708375     2.704413     2.700451     2.696489
      2.692527     2.688565     2.684603     2.680641     2.676679     2.672717     2.668755     2.664793     2.660830     2.656868
      2.652906     2.648944     2.644982     2.641020     2.637058     2.633096     2.629134     2.625172     2.621210     2.617248
      2.613286     2.609324     2.605362     2.601400     2.597438     2.593476     2.589514     2.585552     2.581590     2.577628
      2.573666     2.569704     2.565742     2.561779     2.557817     2.553855     2.549893     2.545931     2.541969     2.538007
      2.534045     2.530083     2.526121     2.522159     2.518197     2.514235     2.510273     2.506311     2.502349     2.498387
      2.494425     2.490463     2.486501     2.482539     2.478577     2.474615     2.470653     2.466691     2.462729     2.458766
      2.454804     2.450842     2.446880     2.442918     2.438956     2.434994     2.431032     2.427070     2.423108     2.419146
      2.415184     2.411222     2.407260     2.403298     2.399336     2.395374     2.391412     2.387450     2.383488     2.379526
      2.375564     2.371602     2.367640     2.363678     2.359715     2.355753     2.351791     2.347829     2.343867     2.339905
      2.335943     2.331981     2.328019     2.324057     2.320095     2.316133     2.312171     2.308209     2.304247     2.300285
      2.296323     2.292361     2.288399     2.284437     2.280475     2.276513     2.272551     2.268589     2.264627     2.260664
      2.256702     2.252740     2.248778     2.244816     2.240854     2.236892     2.232930     2.228968     2.225006     2.221044
      2.217082     2.213120     2.209158     2.205196     2.201234     2.197272     2.193310     2.189348     2.185386     2.181424
      2.177462     2.173500     2.169538     2.165576     2.161613     2.157651     2.153689     2.149727     2.145765     2.141803
      2.137841     2.133879     2.129917     2.125955     2.121993     2.118031     2.114069     2.110107     2.106145     2.102183
      2.098221     2.094259     2.090297     2.086335     2.082373     2.078411     2.074449     2.070487     2.066525     2.062562
      2.058600     2.054638     2.050676     2.046714     2.042752     2.038790     2.034828     2.030866     2.026904     2.022942
      2.018980     2.015018     2.011056     2.007094     2.003132     1.999170     1.995208     1.991246     1.987284     1.983322
      1.979360     1.975398     1.971436     1.967474     1.963511     1.959549     1.955587     1.951625     1.947663     1.943701
      1.939739     1.935777     1.931815     1.927853     1.923891     1.919929     1.915967     1.912005     1.908043     1.904081
      1.900119     1.896157     1.892195     1.888233     1.884271     1.880309     1.876347     1.872385     1.868423     1.864460
      1.860498     1.856536     1.852574     1.848612     1.844650     1.840688     1.836726     1.832764     1.828802     1.824840
      1.820878     1.816916     1.812954     1.808992     1.805030     1.801068     1.797106     1.793144     1.789182     1.785220
      1.781258     1.777296     1.773334     1.769372     1.765409     1.761447     1.757485     1.753523     1.749561     1.745599
      1.741637     1.737675     1.733713     1.729751     1.725789     1.721827     1.717865     1.713903     1.709941     1.705979
      1.702017     1.698055     1.694093     1.690131     1.686169     1.682207     1.678245     1.674283     1.670321     1.666358
      1.662396     1.658434     1.654472     1.650510     1.646548     1.642586     1.638624     1.634662     1.630700     1.626738
      1.622776     1.618814     1.614852     1.610890     1.606928     1.602966     1.599004     1.595042     1.591080     1.587118
      1.583156     1.579194     1.575232     1.571270     1.567307     1.563345     1.559383     1.555421     1.551459     1.547497
      1.543535     1.539573     1.535611     1.531649     1.527687     1.523725     1.519763     1.515801     1.511839     1.507877
      1.503915     1.499953     1.495991     1.492029     1.488067     1.484105     1.480143     1.476181     1.472219     1.468256
      1.464294     1.460332     1.456370     1.452408     1.448446     1.444484     1.440522     1.436560     1.432598     1.428636
      1.424674     1.420712     1.416750     1.412788     1.408826     1.404864     1.400902     1.396940     1.392978     1.389016
      1.385054     1.381092     1.377130     1.373168     1.369205     1.365243     1.361281     1.357319     1.353357     1.349395
      1.345433     1.341471     1.337509     1.333547     1.329585     1.325623     1.321661     1.317699     1.313737     1.309775
      1.305813     1.301851     1.297889     1.293927     1.289965     1.286003     1.282041     1.278079     1.274117     1.270154
      1.266192     1.262230     1.258268     1.254306     1.250344     1.246382     1.242420     1.238458     1.234496     1.230534
      1.226572     1.222610     1.218648     1.214686     1.210724     1.206762     1.202800     1.198838     1.194876     1.190914
      1.186952     1.182990     1.179028     1.175066     1.171103     1.167141     1.163179     1.159217     1.155255     1.151293
      1.147331     1.143369     1.139407     1.135445     1.131483     1.127521     1.123559     1.119597     1.115635     1.111673
      1.107711     1.103749     1.099787     1.095825     1.091863     1.087901     1.083939     1.079977     1.076015     1.072052
      1.068090     1.064128     1.060166     1.056204     1.052242     1.048280     1.044318     1.040356     1.036394     1.032432
      1.028470     1.024508     1.020546     1.016584     1.012622     1.008660     1.004698     1.000736     0.996774     0.992812
      0.988850     0.984888     0.980926     0.976964     0.973001     0.969039     0.965077     0.961115     0.957153     0.953191
      0.949229     0.945267     0.941305     0.937343     0.933381     0.929419     0.925457     0.921495     0.917533     0.913571
      0.909609     0.905647     0.901685     0.897723     0.893761     0.889799     0.885837     0.881875     0.877913     0.873950
      0.869988     0.866026     0.862064     0.858102     0.854140     0.850178     0.846216     0.842254     0.838292     0.834330
      0.830368     0.826406     0.822444     0.818482     0.814520     0.810558     0.806596     0.802634     0.798672     0.794710
      0.790748     0.786786     0.782824     0.778862     0.774899     0.770937     0.766975     0.763013     0.759051     0.755089
      0.751127     0.747165     0.743203     0.739241     0.735279     0.731317     0.727355     0.723393     0.719431     0.715469
      0.711507     0.707545     0.703583     0.699621     0.695659     0.691697     0.687735     0.683773     0.679811     0.675848
      0.671886     0.667924     0.663962     0.660000     0.656038     0.652076     0.648114     0.644152     0.640190     0.636228
      0.632266     0.628304     0.624342     0.620380     0.616418     0.612456     0.608494     0.604532     0.600570     0.596608
      0.592646     0.588684     0.584722     0.580760     0.576797     0.572835     0.568873     0.564911     0.560949     0.556987
      0.553025     0.549063     0.545101     0.541139     0.537177     0.533215     0.529253     0.525291     0.521329     0.517367
      0.513405     0.509443     0.505481     0.501519
 NY phased data points follow
   4.62294E-01  4.83288E-01  4.60994E-01  4.33273E-01  4.78775E-01  4.92517E-01  4.67306E-01  4.71428E-01  4.65535E-01  4.85305E-01
   4.99336E-01  5.06035E-01  5.29236E-01  5.43964E-01  5.91781E-01  5.88097E-01  6.51271E-01  7.19094E-01  7.43643E-01  8.12961E-01
   8.96398E-01  9.61830E-01  1.00873E+00  1.12655E+00  1.20691E+00  1.28220E+00  1.37073E+00  1.42343E+00  1.40355E+00  1.39333E+00
   1.42255E+00  1.36850E+00  1.29339E+00  1.22029E+00  1.13544E+00  1.03916E+00  9.08820E-01  8.66215E-01  8.20362E-01  7.78679E-01
   7.81396E-01  6.83988E-01  6.55740E-01  6.18727E-01  6.54734E-01  6.01275E-01  6.24387E-01  6.31550E-01  6.67488E-01  6.49884E-01
   6.38912E-01  6.81273E-01  6.60969E-01  6.73603E-01  6.68454E-01  7.10829E-01  7.64704E-01  7.35801E-01  7.65326E-01  7.87465E-01
   7.82728E-01  7.96165E-01  7.97427E-01  8.48223E-01  8.84193E-01  9.16811E-01  9.42370E-01  1.00327E+00  1.03035E+00  9.98979E-01
   1.02641E+00  9.82158E-01  9.50624E-01  9.24610E-01  9.08349E-01  8.26907E-01  8.17695E-01  7.82359E-01  7.82650E-01  7.77383E-01
   7.81448E-01  8.01652E-01  7.84020E-01  7.76661E-01  7.77890E-01  7.95270E-01  7.87043E-01  7.31157E-01  7.37952E-01  7.14827E-01
   7.12765E-01  7.29313E-01  7.18044E-01  7.37225E-01  7.91276E-01  8.35869E-01  8.38754E-01  8.53625E-01  9.13895E-01  9.06590E-01
   8.99437E-01  8.46189E-01  7.99020E-01  7.50391E-01  6.38392E-01  6.25315E-01  5.81021E-01  5.53653E-01  5.66351E-01  5.46600E-01
   5.12417E-01  5.67667E-01  6.37331E-01  6.91306E-01  7.66818E-01  8.46804E-01  9.21630E-01  1.02736E+00  1.08280E+00  1.09756E+00
   1.09169E+00  1.10146E+00  9.97579E-01  9.86652E-01  9.19876E-01  8.64488E-01  8.02654E-01  7.53468E-01  6.53125E-01  5.84837E-01
   5.61329E-01  5.22290E-01  4.75591E-01  4.61518E-01  4.60933E-01  5.02459E-01  4.45054E-01  4.78707E-01  4.84790E-01  4.53399E-01
   4.46913E-01  4.49917E-01  4.82945E-01  4.76899E-01  4.55668E-01  4.50225E-01  4.45048E-01  4.75039E-01  4.52769E-01  4.30396E-01
   4.29301E-01  3.75740E-01  3.72592E-01  3.78852E-01  4.27765E-01  4.19351E-01  3.77574E-01  3.56651E-01  3.35868E-01  3.22007E-01
   3.26145E-01  3.51493E-01  3.49022E-01  3.49777E-01  3.32605E-01  3.58684E-01  3.80641E-01  3.91635E-01  3.81795E-01  4.01556E-01
   4.15023E-01  4.22036E-01  4.33479E-01  4.32163E-01  3.98592E-01  3.38716E-01  3.64300E-01  3.25900E-01  3.08494E-01  2.94475E-01
   3.22466E-01  2.97526E-01  3.02345E-01  3.57660E-01  3.58197E-01  3.72495E-01  4.22631E-01  4.81691E-01  5.21157E-01  5.02426E-01
   5.56358E-01  6.11380E-01  6.02547E-01  6.20887E-01  6.52400E-01  6.52740E-01  6.99455E-01  6.82044E-01  6.84479E-01  7.12085E-01
   7.78764E-01  8.50339E-01  9.78230E-01  1.09904E+00  1.21365E+00  1.34401E+00  1.38863E+00  1.48018E+00  1.44139E+00  1.37545E+00
   1.22827E+00  1.10460E+00  9.79627E-01  8.67924E-01  7.49200E-01  7.15439E-01  6.73623E-01  6.36970E-01  5.71213E-01  5.60599E-01
   5.07506E-01  4.62914E-01  4.34484E-01  4.27142E-01  4.34671E-01  4.33947E-01  4.19157E-01  4.18435E-01  3.70674E-01  4.06175E-01
   3.99552E-01  3.65665E-01  4.06760E-01  4.12411E-01  4.05877E-01  4.15557E-01  4.47614E-01  4.41449E-01  4.49290E-01  4.63519E-01
   5.49010E-01  5.65140E-01  5.66787E-01  6.44740E-01  6.75469E-01  7.53211E-01  8.88180E-01  1.01512E+00  1.25058E+00  1.45918E+00
   1.68960E+00  1.88984E+00  2.05060E+00  2.10790E+00  2.10961E+00  2.05435E+00  1.88680E+00  1.62470E+00  1.39166E+00  1.18733E+00
   1.04757E+00  9.53205E-01  8.74226E-01  8.16658E-01  7.49551E-01  6.70799E-01  5.95261E-01  5.76803E-01  5.40388E-01  4.80720E-01
   4.83331E-01  4.73659E-01  4.36977E-01  4.54276E-01  4.34654E-01  4.26958E-01  4.10734E-01  4.23013E-01  4.31116E-01  4.61398E-01
   4.28618E-01  4.19016E-01  3.90771E-01  3.85802E-01  3.73096E-01  3.86758E-01  3.57019E-01  3.76059E-01  3.51509E-01  3.31696E-01
   3.31984E-01  3.51832E-01  3.38517E-01  3.11507E-01  3.21362E-01  2.73291E-01  2.80913E-01  2.80295E-01  2.57695E-01  3.21485E-01
   3.09915E-01  2.87109E-01  2.48631E-01  2.59991E-01  2.76926E-01  3.11883E-01  3.18583E-01  3.44287E-01  2.82144E-01  3.29603E-01
   3.66838E-01  3.56110E-01  4.23700E-01  3.78223E-01  4.12887E-01  4.36089E-01  4.08630E-01  3.82219E-01  3.55180E-01  3.44517E-01
   2.76825E-01  2.73228E-01  2.96684E-01  3.21538E-01  3.56675E-01  3.66146E-01  3.90817E-01  3.81448E-01  3.50418E-01  3.13944E-01
   2.96351E-01  2.60944E-01  2.30369E-01  2.38178E-01  2.14062E-01  1.92397E-01  1.87742E-01  2.07381E-01  2.07014E-01  2.00295E-01
   1.82740E-01  2.36207E-01  1.93665E-01  2.58776E-01  2.77588E-01  3.36010E-01  3.32224E-01  3.70454E-01  3.86003E-01  4.29307E-01
   4.12970E-01  4.58261E-01  4.04642E-01  4.19807E-01  3.83338E-01  4.07912E-01  4.26985E-01  4.32870E-01  4.86641E-01  4.95985E-01
   5.46962E-01  5.97202E-01  5.72992E-01  5.70085E-01  5.47809E-01  5.52305E-01  5.41133E-01  5.29535E-01  4.85924E-01  4.77042E-01
   4.41792E-01  4.01363E-01  3.75072E-01  3.21958E-01  3.29594E-01  3.37235E-01  3.28095E-01  3.23778E-01  3.78086E-01  3.41058E-01
   3.65302E-01  3.68678E-01  3.25823E-01  4.14984E-01  3.84353E-01  4.13959E-01  4.42480E-01  4.83646E-01  4.92167E-01  5.55222E-01
   6.03377E-01  5.77646E-01  6.07763E-01  5.83064E-01  6.01897E-01  6.30408E-01  6.47865E-01  6.88440E-01  7.28157E-01  7.77740E-01
   7.97949E-01  7.82610E-01  8.00211E-01  7.64543E-01  7.44962E-01  6.84286E-01  6.34159E-01  6.59493E-01  6.29412E-01  5.87036E-01
   5.59435E-01  5.18923E-01  4.98522E-01  5.01224E-01  5.07194E-01  5.39819E-01  5.86426E-01  6.27930E-01  7.12137E-01  8.22018E-01
   9.03149E-01  9.77830E-01  1.05758E+00  1.06523E+00  1.06311E+00  1.04622E+00  1.01361E+00  9.51969E-01  8.34438E-01  7.73000E-01
   6.83623E-01  6.17237E-01  6.17164E-01  6.27719E-01  5.90009E-01  6.06404E-01  6.72222E-01  6.86450E-01  7.76859E-01  8.61524E-01
   8.57436E-01  8.34612E-01  8.42035E-01  8.26464E-01  7.84350E-01  7.88624E-01  7.57917E-01  7.37072E-01  7.44265E-01  7.16425E-01
   6.87464E-01  6.74011E-01  6.84188E-01  6.67880E-01  6.14393E-01  6.32917E-01  6.32377E-01  6.40382E-01  6.44595E-01  6.49399E-01
   6.66318E-01  6.53119E-01  6.54366E-01  6.46838E-01  6.19846E-01  6.62072E-01  6.51808E-01  6.82205E-01  7.01140E-01  6.55966E-01
   6.37632E-01  6.22622E-01  6.52977E-01  6.44689E-01  6.13766E-01  6.12862E-01  6.45451E-01  6.38770E-01  6.59018E-01  6.96762E-01
   7.67131E-01  7.77754E-01  7.99962E-01  8.52073E-01  8.76680E-01  8.45626E-01  9.18560E-01  8.66032E-01  8.78664E-01  9.26999E-01
   9.19995E-01  9.22389E-01  9.42752E-01  9.69672E-01  9.96197E-01  1.03465E+00  1.08617E+00  1.19516E+00  1.28364E+00  1.37173E+00
   1.44232E+00  1.51146E+00  1.55711E+00  1.71370E+00  1.86206E+00  2.16282E+00  2.47165E+00  2.81892E+00  3.13706E+00  3.38203E+00
   3.55991E+00  3.56435E+00  3.37811E+00  3.00412E+00  2.52025E+00  2.04839E+00  1.65289E+00  1.38436E+00  1.23616E+00  1.16388E+00
   1.06196E+00  9.86821E-01  8.37655E-01  7.46309E-01  7.09396E-01  6.30123E-01  6.51030E-01  6.35724E-01  5.87807E-01  5.90444E-01
   5.38066E-01  4.15385E-01  4.43071E-01  4.48144E-01  4.52414E-01  4.88951E-01  4.41755E-01  4.81841E-01  4.67886E-01  4.19702E-01
   3.88735E-01  4.16019E-01  3.58635E-01  3.88304E-01  4.21504E-01  4.02922E-01  3.73004E-01  3.17260E-01  3.39795E-01  3.60156E-01
   3.63877E-01  3.80939E-01  3.44748E-01  3.45106E-01  3.17449E-01  2.94952E-01  3.12795E-01  2.99362E-01  3.54067E-01  3.12729E-01
   3.54479E-01  3.30840E-01  3.38780E-01  3.09302E-01  3.16336E-01  3.01282E-01  3.14804E-01  2.99409E-01  2.95492E-01  2.93773E-01
   3.04550E-01  2.96239E-01  3.25764E-01  2.83295E-01  3.15873E-01  3.12118E-01  3.05302E-01  2.95976E-01  2.94968E-01  3.07642E-01
   3.17337E-01  2.85831E-01  2.91721E-01  2.61616E-01  2.99985E-01  3.26875E-01  2.92907E-01  2.98578E-01  2.93945E-01  2.90513E-01
   3.18200E-01  3.33814E-01  2.97987E-01  3.36671E-01  3.07637E-01  3.12828E-01  3.68462E-01  3.58856E-01  3.54116E-01  3.39720E-01
   3.40669E-01  3.36207E-01  3.62190E-01  3.67821E-01  3.36317E-01  3.66795E-01  3.57283E-01  3.36971E-01  3.18404E-01  3.31823E-01
   3.52656E-01  3.39245E-01  3.89552E-01  2.92173E-01  3.50601E-01  3.52474E-01  3.32857E-01  3.49579E-01  3.39891E-01  3.12479E-01
   3.41748E-01  3.33825E-01  3.43811E-01  3.27236E-01  3.41191E-01  3.13655E-01  3.15835E-01  3.43445E-01  3.02967E-01  3.20913E-01
   2.75618E-01  3.32948E-01  3.49264E-01  3.13888E-01  3.26395E-01  3.38778E-01  3.54981E-01  3.68744E-01  3.51877E-01  3.55040E-01
   3.53199E-01  3.39838E-01  3.90917E-01  3.75518E-01  3.73186E-01  3.62867E-01  3.71056E-01  3.82601E-01  3.81572E-01  3.78753E-01
   3.82368E-01  4.25055E-01  3.97689E-01  4.17659E-01  4.20924E-01  4.32085E-01  4.78938E-01  5.12406E-01  4.50904E-01  4.66876E-01
   4.43256E-01  4.40145E-01  4.49578E-01  4.70832E-01  4.42376E-01  4.69519E-01  4.77329E-01  4.38575E-01  4.56443E-01  4.34923E-01
   4.71613E-01  4.59314E-01  4.93764E-01  5.15103E-01  5.09586E-01  5.45360E-01  5.12451E-01  5.13282E-01  5.35484E-01  4.80565E-01
   4.43941E-01  4.40085E-01  4.49091E-01  4.38245E-01  3.85369E-01  4.28330E-01  4.00137E-01  4.10745E-01  4.12757E-01  4.60837E-01
   4.27382E-01  4.42008E-01  4.71606E-01  4.79502E-01  4.81586E-01  4.60307E-01  4.63984E-01  4.56307E-01  4.32838E-01  4.27652E-01
   4.06157E-01  4.30550E-01  4.21641E-01  4.26676E-01  4.27764E-01  3.60208E-01  3.97692E-01  4.38935E-01  3.77877E-01  4.06248E-01
   3.81265E-01  3.84826E-01  3.85502E-01  4.06532E-01  3.98077E-01  3.51507E-01  4.03135E-01  3.79547E-01  3.78729E-01  3.62846E-01
   3.60843E-01  3.39342E-01  3.59820E-01  3.44806E-01  3.46296E-01  3.39130E-01  3.50000E-01  3.08711E-01  2.94960E-01  3.29342E-01
   2.87214E-01  2.98645E-01  3.13800E-01  2.80148E-01  2.54373E-01  2.93951E-01  2.70298E-01  2.41170E-01  2.60727E-01  3.11606E-01
   2.67857E-01  2.64103E-01  2.53525E-01  2.21841E-01  2.28876E-01  2.53565E-01  2.68995E-01  2.31417E-01  2.49151E-01  2.53749E-01
   2.47648E-01  2.57044E-01  2.37904E-01  2.65424E-01  2.45135E-01  2.60858E-01  2.64385E-01  2.81660E-01  2.67709E-01  2.67068E-01
   2.72305E-01  2.97418E-01  3.09537E-01  3.33330E-01  3.30214E-01  3.51057E-01  3.70477E-01  3.42507E-01  3.54433E-01  3.80777E-01
   3.91100E-01  4.06624E-01  4.19119E-01  3.90737E-01  3.98863E-01  4.00316E-01  4.40393E-01  4.73768E-01  4.54119E-01  4.67200E-01
   4.56118E-01  4.73237E-01  4.59744E-01  4.86184E-01  4.60901E-01  4.76010E-01  4.90502E-01  4.63049E-01  5.23974E-01  5.09945E-01
   5.06175E-01  5.09644E-01  4.90892E-01  5.03823E-01  5.04669E-01  4.65659E-01  4.99847E-01  4.78742E-01  4.91406E-01  4.36532E-01
   4.74498E-01  4.66295E-01  4.50874E-01  4.62329E-01  4.16081E-01  4.01436E-01  4.39041E-01  3.82438E-01  3.84098E-01  3.62870E-01
   3.66773E-01  3.20241E-01  2.93885E-01  3.17388E-01  2.66924E-01  2.85816E-01  2.84976E-01  2.78037E-01  2.92993E-01  2.49229E-01
   2.52715E-01  2.45172E-01  2.32599E-01  2.24184E-01  2.65389E-01  2.14452E-01  2.20450E-01  2.02007E-01  2.02721E-01  2.26503E-01
   2.07910E-01  1.70580E-01  1.72589E-01  2.05558E-01  1.61955E-01  1.77493E-01  1.73185E-01  1.54167E-01  1.49019E-01  1.41635E-01
   1.32401E-01  1.11896E-01  1.52432E-01  1.16879E-01  1.47623E-01  1.42976E-01  1.38358E-01  1.49152E-01  1.39230E-01  1.27784E-01
   1.49793E-01  1.29072E-01  1.26810E-01  1.19072E-01  1.14324E-01  1.34475E-01  1.44886E-01  1.52853E-01  1.30378E-01  1.14845E-01
   1.28419E-01  1.02728E-01  9.06625E-02  1.00789E-01  8.59419E-02  1.20715E-01  1.29351E-01  1.44340E-01  1.34808E-01  1.36878E-01
   1.17428E-01  8.18910E-02  1.08637E-01  1.49075E-01  1.26992E-01  1.21464E-01  1.11841E-01  1.20724E-01  1.30766E-01  9.73703E-02
   1.23627E-01  1.17773E-01  1.36956E-01  1.44451E-01
 NY points of the fit to the data follow
   5.13431E-01  5.08765E-01  4.97363E-01  4.85208E-01  4.76765E-01  4.72130E-01  4.73469E-01  4.76257E-01  4.75379E-01  4.74511E-01
   4.77556E-01  4.84151E-01  4.95211E-01  5.14344E-01  5.44642E-01  5.85564E-01  6.27546E-01  6.65285E-01  7.22532E-01  8.05364E-01
   8.91350E-01  9.86105E-01  1.07416E+00  1.14854E+00  1.23058E+00  1.31809E+00  1.38383E+00  1.42328E+00  1.43305E+00  1.42367E+00
   1.40947E+00  1.38126E+00  1.33636E+00  1.27313E+00  1.17051E+00  1.04690E+00  9.34600E-01  8.44794E-01  7.84255E-01  7.49842E-01
   7.17902E-01  6.82104E-01  6.50540E-01  6.26318E-01  6.11249E-01  6.04831E-01  6.05479E-01  6.11461E-01  6.19865E-01  6.28847E-01
   6.38840E-01  6.47695E-01  6.54799E-01  6.65751E-01  6.80635E-01  6.96675E-01  7.13296E-01  7.24127E-01  7.34817E-01  7.58798E-01
   7.84772E-01  8.09900E-01  8.35409E-01  8.63188E-01  8.98818E-01  9.38375E-01  9.70132E-01  9.93023E-01  1.00587E+00  1.00505E+00
   9.98590E-01  9.87909E-01  9.72828E-01  9.58205E-01  9.36025E-01  9.00412E-01  8.58594E-01  8.20646E-01  7.93281E-01  7.77217E-01
   7.66537E-01  7.60164E-01  7.58911E-01  7.58147E-01  7.56706E-01  7.55365E-01  7.53671E-01  7.49689E-01  7.40832E-01  7.27130E-01
   7.12993E-01  7.05015E-01  7.10718E-01  7.32156E-01  7.67241E-01  8.08691E-01  8.51799E-01  8.88016E-01  9.11766E-01  9.15825E-01
   8.94815E-01  8.47632E-01  7.80149E-01  7.04156E-01  6.33991E-01  5.81075E-01  5.50624E-01  5.38688E-01  5.36313E-01  5.39600E-01
   5.55905E-01  5.86430E-01  6.29152E-01  6.88833E-01  7.62638E-01  8.41514E-01  9.21694E-01  9.89177E-01  1.04250E+00  1.07595E+00
   1.07869E+00  1.05864E+00  1.02155E+00  9.73012E-01  9.23344E-01  8.74618E-01  8.18804E-01  7.56423E-01  6.92209E-01  6.29900E-01
   5.80828E-01  5.46156E-01  5.23872E-01  5.15337E-01  5.10467E-01  5.05939E-01  5.03940E-01  5.02255E-01  5.00284E-01  4.97871E-01
   4.92016E-01  4.84394E-01  4.77397E-01  4.69575E-01  4.61120E-01  4.51755E-01  4.38175E-01  4.22783E-01  4.09778E-01  3.99156E-01
   3.91290E-01  3.86360E-01  3.83279E-01  3.82515E-01  3.81191E-01  3.76758E-01  3.69255E-01  3.59302E-01  3.49499E-01  3.41849E-01
   3.39859E-01  3.43604E-01  3.51641E-01  3.62206E-01  3.71553E-01  3.78388E-01  3.85992E-01  3.95174E-01  4.00973E-01  4.06746E-01
   4.09309E-01  4.08606E-01  4.06654E-01  4.01272E-01  3.90615E-01  3.74822E-01  3.54384E-01  3.33528E-01  3.17564E-01  3.08503E-01
   3.09038E-01  3.19421E-01  3.36785E-01  3.58969E-01  3.80944E-01  4.01367E-01  4.26128E-01  4.58776E-01  4.92969E-01  5.27893E-01
   5.54799E-01  5.77234E-01  5.97746E-01  6.15317E-01  6.32311E-01  6.47068E-01  6.57563E-01  6.67852E-01  6.83961E-01  7.12276E-01
   7.65154E-01  8.61666E-01  9.77153E-01  1.09759E+00  1.21937E+00  1.32851E+00  1.41752E+00  1.46765E+00  1.45568E+00  1.38007E+00
   1.25464E+00  1.10147E+00  9.55884E-01  8.40494E-01  7.55751E-01  7.03499E-01  6.66575E-01  6.25843E-01  5.85067E-01  5.46817E-01
   5.11824E-01  4.82589E-01  4.58000E-01  4.38474E-01  4.25987E-01  4.17190E-01  4.09707E-01  4.03900E-01  4.00059E-01  3.98319E-01
   3.98604E-01  4.00499E-01  4.04252E-01  4.10297E-01  4.18091E-01  4.27305E-01  4.38344E-01  4.51462E-01  4.67537E-01  4.87982E-01
   5.14888E-01  5.51555E-01  6.00426E-01  6.58086E-01  7.14410E-01  7.87746E-01  9.05041E-01  1.04195E+00  1.22618E+00  1.44085E+00
