 LCModel (Version 6.3-0D) Copyright: S.W. Provencher.          Ref.: Magn. Reson. Med. 30:672-679 (1993).                
 S04_PRESS_35
 Data of: Dept of Radiology, The Johns Hopkins University School of Medicine
 17-March-2020  16:44
 32 lines in following concentration table = NCONC+1
    Conc.  %SD /Cr+PCr  Metabolite                                         
    0.000 999%   0.000 Asc                                                 
    5.004  11%   3.327 Asp                                                 
    5.670   5%   3.770 Cr                                                  
    0.769  37%   0.511 GABA                                                
    0.517  30%   0.344 GPC                                                 
    2.423   5%   1.611 GSH                                                 
    3.644  12%   2.423 Gln                                                 
   16.488   5%  10.963 Glu                                                 
   10.306   3%   6.852 Ins                                                 
    0.455  47%   0.303 Lac                                                 
   18.246   2%  12.131 NAA                                                 
    2.094  11%   1.393 NAAG                                                
    1.581  10%   1.051 PCh                                                 
    6.362   5%   4.230 PCr                                                 
    1.785  37%   1.187 PE                                                  
    0.490  11%   0.326 Scyllo                                              
    3.249  14%   2.160 Tau                                                 
    0.000 999%   0.000 -CrCH2                                              
    2.098   2%   1.395 PCh+GPC                                             
   12.032   1%   8.000 Cr+PCr                                              
   20.340   1%  13.524 NAA+NAAG                                            
   20.132   4%  13.386 Glu+Gln                                             
   26.723  17%  17.768 Lip13a                                              
    0.000 999%   0.000 Lip13b                                              
    7.135  17%   4.744 Lip09                                               
    1.480  82%   0.984 MM09                                                
    4.009  17%   2.666 Lip20                                               
    0.000 999%   0.000 MM20                                                
    0.000 999%   0.000 MM12                                                
    7.241  25%   4.815 MM14                                                
    4.683  32%   3.114 MM17                                                
   6 lines in following misc. output table
  FWHM = 0.028 ppm    S/N =  63                                            
  Data shift = 0.024 ppm                                                   
  Ph:  -9 deg      -5.1 deg/ppm                                            
  alphaB,S = 2.6E-02,   2.5E+01                                            
   26 spline knots.   Ns = 9(1)                                            
  ( 4) 2 infls.   ( 1) 1 extrs.                                            
  884 points on ppm-axis = NY
      4.000000     3.996038     3.992076     3.988114     3.984152     3.980190     3.976228     3.972266     3.968304     3.964342
      3.960380     3.956418     3.952456     3.948493     3.944531     3.940569     3.936607     3.932645     3.928683     3.924721
      3.920759     3.916797     3.912835     3.908873     3.904911     3.900949     3.896987     3.893025     3.889063     3.885101
      3.881139     3.877177     3.873215     3.869253     3.865291     3.861329     3.857367     3.853405     3.849442     3.845480
      3.841518     3.837556     3.833594     3.829632     3.825670     3.821708     3.817746     3.813784     3.809822     3.805860
      3.801898     3.797936     3.793974     3.790012     3.786050     3.782088     3.778126     3.774164     3.770202     3.766240
      3.762278     3.758316     3.754354     3.750391     3.746429     3.742467     3.738505     3.734543     3.730581     3.726619
      3.722657     3.718695     3.714733     3.710771     3.706809     3.702847     3.698885     3.694923     3.690961     3.686999
      3.683037     3.679075     3.675113     3.671151     3.667189     3.663227     3.659265     3.655303     3.651340     3.647378
      3.643416     3.639454     3.635492     3.631530     3.627568     3.623606     3.619644     3.615682     3.611720     3.607758
      3.603796     3.599834     3.595872     3.591910     3.587948     3.583986     3.580024     3.576062     3.572100     3.568138
      3.564176     3.560214     3.556252     3.552289     3.548327     3.544365     3.540403     3.536441     3.532479     3.528517
      3.524555     3.520593     3.516631     3.512669     3.508707     3.504745     3.500783     3.496821     3.492859     3.488897
      3.484935     3.480973     3.477011     3.473049     3.469087     3.465125     3.461163     3.457201     3.453238     3.449276
      3.445314     3.441352     3.437390     3.433428     3.429466     3.425504     3.421542     3.417580     3.413618     3.409656
      3.405694     3.401732     3.397770     3.393808     3.389846     3.385884     3.381922     3.377960     3.373998     3.370036
      3.366074     3.362112     3.358150     3.354187     3.350225     3.346263     3.342301     3.338339     3.334377     3.330415
      3.326453     3.322491     3.318529     3.314567     3.310605     3.306643     3.302681     3.298719     3.294757     3.290795
      3.286833     3.282871     3.278909     3.274947     3.270985     3.267023     3.263061     3.259099     3.255136     3.251174
      3.247212     3.243250     3.239288     3.235326     3.231364     3.227402     3.223440     3.219478     3.215516     3.211554
      3.207592     3.203630     3.199668     3.195706     3.191744     3.187782     3.183820     3.179858     3.175896     3.171934
      3.167972     3.164010     3.160048     3.156085     3.152123     3.148161     3.144199     3.140237     3.136275     3.132313
      3.128351     3.124389     3.120427     3.116465     3.112503     3.108541     3.104579     3.100617     3.096655     3.092693
      3.088731     3.084769     3.080807     3.076845     3.072883     3.068921     3.064959     3.060997     3.057034     3.053072
      3.049110     3.045148     3.041186     3.037224     3.033262     3.029300     3.025338     3.021376     3.017414     3.013452
      3.009490     3.005528     3.001566     2.997604     2.993642     2.989680     2.985718     2.981756     2.977794     2.973832
      2.969870     2.965908     2.961946     2.957983     2.954021     2.950059     2.946097     2.942135     2.938173     2.934211
      2.930249     2.926287     2.922325     2.918363     2.914401     2.910439     2.906477     2.902515     2.898553     2.894591
      2.890629     2.886667     2.882705     2.878743     2.874781     2.870819     2.866857     2.862895     2.858932     2.854970
      2.851008     2.847046     2.843084     2.839122     2.835160     2.831198     2.827236     2.823274     2.819312     2.815350
      2.811388     2.807426     2.803464     2.799502     2.795540     2.791578     2.787616     2.783654     2.779692     2.775730
      2.771768     2.767806     2.763844     2.759881     2.755919     2.751957     2.747995     2.744033     2.740071     2.736109
      2.732147     2.728185     2.724223     2.720261     2.716299     2.712337     2.708375     2.704413     2.700451     2.696489
      2.692527     2.688565     2.684603     2.680641     2.676679     2.672717     2.668755     2.664793     2.660830     2.656868
      2.652906     2.648944     2.644982     2.641020     2.637058     2.633096     2.629134     2.625172     2.621210     2.617248
      2.613286     2.609324     2.605362     2.601400     2.597438     2.593476     2.589514     2.585552     2.581590     2.577628
      2.573666     2.569704     2.565742     2.561779     2.557817     2.553855     2.549893     2.545931     2.541969     2.538007
      2.534045     2.530083     2.526121     2.522159     2.518197     2.514235     2.510273     2.506311     2.502349     2.498387
      2.494425     2.490463     2.486501     2.482539     2.478577     2.474615     2.470653     2.466691     2.462729     2.458766
      2.454804     2.450842     2.446880     2.442918     2.438956     2.434994     2.431032     2.427070     2.423108     2.419146
      2.415184     2.411222     2.407260     2.403298     2.399336     2.395374     2.391412     2.387450     2.383488     2.379526
      2.375564     2.371602     2.367640     2.363678     2.359715     2.355753     2.351791     2.347829     2.343867     2.339905
      2.335943     2.331981     2.328019     2.324057     2.320095     2.316133     2.312171     2.308209     2.304247     2.300285
      2.296323     2.292361     2.288399     2.284437     2.280475     2.276513     2.272551     2.268589     2.264627     2.260664
      2.256702     2.252740     2.248778     2.244816     2.240854     2.236892     2.232930     2.228968     2.225006     2.221044
      2.217082     2.213120     2.209158     2.205196     2.201234     2.197272     2.193310     2.189348     2.185386     2.181424
      2.177462     2.173500     2.169538     2.165576     2.161613     2.157651     2.153689     2.149727     2.145765     2.141803
      2.137841     2.133879     2.129917     2.125955     2.121993     2.118031     2.114069     2.110107     2.106145     2.102183
      2.098221     2.094259     2.090297     2.086335     2.082373     2.078411     2.074449     2.070487     2.066525     2.062562
      2.058600     2.054638     2.050676     2.046714     2.042752     2.038790     2.034828     2.030866     2.026904     2.022942
      2.018980     2.015018     2.011056     2.007094     2.003132     1.999170     1.995208     1.991246     1.987284     1.983322
      1.979360     1.975398     1.971436     1.967474     1.963511     1.959549     1.955587     1.951625     1.947663     1.943701
      1.939739     1.935777     1.931815     1.927853     1.923891     1.919929     1.915967     1.912005     1.908043     1.904081
      1.900119     1.896157     1.892195     1.888233     1.884271     1.880309     1.876347     1.872385     1.868423     1.864460
      1.860498     1.856536     1.852574     1.848612     1.844650     1.840688     1.836726     1.832764     1.828802     1.824840
      1.820878     1.816916     1.812954     1.808992     1.805030     1.801068     1.797106     1.793144     1.789182     1.785220
      1.781258     1.777296     1.773334     1.769372     1.765409     1.761447     1.757485     1.753523     1.749561     1.745599
      1.741637     1.737675     1.733713     1.729751     1.725789     1.721827     1.717865     1.713903     1.709941     1.705979
      1.702017     1.698055     1.694093     1.690131     1.686169     1.682207     1.678245     1.674283     1.670321     1.666358
      1.662396     1.658434     1.654472     1.650510     1.646548     1.642586     1.638624     1.634662     1.630700     1.626738
      1.622776     1.618814     1.614852     1.610890     1.606928     1.602966     1.599004     1.595042     1.591080     1.587118
      1.583156     1.579194     1.575232     1.571270     1.567307     1.563345     1.559383     1.555421     1.551459     1.547497
      1.543535     1.539573     1.535611     1.531649     1.527687     1.523725     1.519763     1.515801     1.511839     1.507877
      1.503915     1.499953     1.495991     1.492029     1.488067     1.484105     1.480143     1.476181     1.472219     1.468256
      1.464294     1.460332     1.456370     1.452408     1.448446     1.444484     1.440522     1.436560     1.432598     1.428636
      1.424674     1.420712     1.416750     1.412788     1.408826     1.404864     1.400902     1.396940     1.392978     1.389016
      1.385054     1.381092     1.377130     1.373168     1.369205     1.365243     1.361281     1.357319     1.353357     1.349395
      1.345433     1.341471     1.337509     1.333547     1.329585     1.325623     1.321661     1.317699     1.313737     1.309775
      1.305813     1.301851     1.297889     1.293927     1.289965     1.286003     1.282041     1.278079     1.274117     1.270154
      1.266192     1.262230     1.258268     1.254306     1.250344     1.246382     1.242420     1.238458     1.234496     1.230534
      1.226572     1.222610     1.218648     1.214686     1.210724     1.206762     1.202800     1.198838     1.194876     1.190914
      1.186952     1.182990     1.179028     1.175066     1.171103     1.167141     1.163179     1.159217     1.155255     1.151293
      1.147331     1.143369     1.139407     1.135445     1.131483     1.127521     1.123559     1.119597     1.115635     1.111673
      1.107711     1.103749     1.099787     1.095825     1.091863     1.087901     1.083939     1.079977     1.076015     1.072052
      1.068090     1.064128     1.060166     1.056204     1.052242     1.048280     1.044318     1.040356     1.036394     1.032432
      1.028470     1.024508     1.020546     1.016584     1.012622     1.008660     1.004698     1.000736     0.996774     0.992812
      0.988850     0.984888     0.980926     0.976964     0.973001     0.969039     0.965077     0.961115     0.957153     0.953191
      0.949229     0.945267     0.941305     0.937343     0.933381     0.929419     0.925457     0.921495     0.917533     0.913571
      0.909609     0.905647     0.901685     0.897723     0.893761     0.889799     0.885837     0.881875     0.877913     0.873950
      0.869988     0.866026     0.862064     0.858102     0.854140     0.850178     0.846216     0.842254     0.838292     0.834330
      0.830368     0.826406     0.822444     0.818482     0.814520     0.810558     0.806596     0.802634     0.798672     0.794710
      0.790748     0.786786     0.782824     0.778862     0.774899     0.770937     0.766975     0.763013     0.759051     0.755089
      0.751127     0.747165     0.743203     0.739241     0.735279     0.731317     0.727355     0.723393     0.719431     0.715469
      0.711507     0.707545     0.703583     0.699621     0.695659     0.691697     0.687735     0.683773     0.679811     0.675848
      0.671886     0.667924     0.663962     0.660000     0.656038     0.652076     0.648114     0.644152     0.640190     0.636228
      0.632266     0.628304     0.624342     0.620380     0.616418     0.612456     0.608494     0.604532     0.600570     0.596608
      0.592646     0.588684     0.584722     0.580760     0.576797     0.572835     0.568873     0.564911     0.560949     0.556987
      0.553025     0.549063     0.545101     0.541139     0.537177     0.533215     0.529253     0.525291     0.521329     0.517367
      0.513405     0.509443     0.505481     0.501519
 NY phased data points follow
   5.09145E-01  5.26424E-01  5.28656E-01  4.82683E-01  5.11903E-01  5.07303E-01  5.00522E-01  5.13739E-01  5.08462E-01  5.11639E-01
   5.45914E-01  5.52567E-01  6.04254E-01  6.11059E-01  6.45949E-01  6.98594E-01  7.57916E-01  8.17012E-01  8.30235E-01  9.17508E-01
   1.02305E+00  1.08493E+00  1.19648E+00  1.30227E+00  1.36463E+00  1.47240E+00  1.52706E+00  1.56143E+00  1.57388E+00  1.54693E+00
   1.54362E+00  1.44156E+00  1.40406E+00  1.24971E+00  1.20464E+00  1.10097E+00  1.00136E+00  9.32892E-01  8.82474E-01  8.43059E-01
   7.90402E-01  7.74311E-01  7.48203E-01  7.11039E-01  7.14243E-01  7.14636E-01  7.15764E-01  6.99685E-01  7.29804E-01  7.75670E-01
   7.72836E-01  7.50785E-01  7.94274E-01  7.77786E-01  8.40286E-01  8.30246E-01  8.54635E-01  8.48589E-01  8.59066E-01  8.89096E-01
   8.60445E-01  8.90104E-01  8.79966E-01  9.41405E-01  9.52187E-01  1.01373E+00  1.04592E+00  1.07220E+00  1.06461E+00  1.10139E+00
   1.07700E+00  1.07129E+00  1.05275E+00  1.02235E+00  9.43292E-01  8.90588E-01  8.82007E-01  8.39167E-01  8.46579E-01  8.15123E-01
   8.31841E-01  8.33324E-01  8.29027E-01  8.36329E-01  8.16939E-01  7.80657E-01  7.77572E-01  7.65697E-01  7.65270E-01  7.47666E-01
   7.60465E-01  7.55332E-01  7.82249E-01  8.17664E-01  8.72588E-01  9.21441E-01  9.68014E-01  1.02074E+00  1.02725E+00  1.04702E+00
   9.90515E-01  9.39856E-01  8.39143E-01  7.74621E-01  7.07455E-01  6.44554E-01  5.90493E-01  5.97132E-01  5.76599E-01  5.71052E-01
   5.97442E-01  6.42590E-01  6.80749E-01  7.49579E-01  8.45979E-01  9.49608E-01  1.06988E+00  1.16992E+00  1.21797E+00  1.23101E+00
   1.24744E+00  1.19360E+00  1.15233E+00  1.07925E+00  9.97235E-01  9.43171E-01  8.64072E-01  8.23139E-01  7.36241E-01  6.82663E-01
   6.04265E-01  5.89667E-01  5.38134E-01  5.49306E-01  5.41783E-01  5.28915E-01  5.31090E-01  5.25082E-01  5.45009E-01  5.51169E-01
   5.58582E-01  5.65722E-01  5.90084E-01  5.70802E-01  5.90959E-01  5.43571E-01  5.29398E-01  5.47433E-01  5.55397E-01  5.53150E-01
   5.30791E-01  5.46631E-01  4.99052E-01  5.11182E-01  5.15315E-01  4.60458E-01  4.64243E-01  4.56514E-01  4.39336E-01  4.33479E-01
   3.79240E-01  4.30295E-01  4.31757E-01  4.28908E-01  4.35778E-01  4.74955E-01  4.92737E-01  4.74759E-01  4.98777E-01  4.91076E-01
   5.43234E-01  5.51612E-01  5.76716E-01  5.63967E-01  5.22313E-01  4.83317E-01  4.46927E-01  3.90785E-01  4.11176E-01  3.66406E-01
   3.61740E-01  3.67111E-01  3.97191E-01  3.80097E-01  3.99635E-01  4.57657E-01  4.80015E-01  5.36268E-01  5.40371E-01  5.68406E-01
   6.20628E-01  6.30205E-01  6.64460E-01  6.67890E-01  6.55021E-01  6.50732E-01  6.80766E-01  6.58282E-01  7.06753E-01  7.47356E-01
   7.96515E-01  8.97768E-01  9.69184E-01  1.09638E+00  1.22240E+00  1.32581E+00  1.42657E+00  1.47168E+00  1.43508E+00  1.38064E+00
   1.28574E+00  1.18715E+00  1.03036E+00  9.06766E-01  8.15346E-01  7.17052E-01  6.73282E-01  6.71386E-01  5.92043E-01  5.45142E-01
   5.48264E-01  5.31167E-01  4.99618E-01  4.66533E-01  4.36127E-01  4.67098E-01  4.55805E-01  4.66335E-01  4.06413E-01  4.31672E-01
   4.53380E-01  4.52638E-01  4.69891E-01  4.41137E-01  4.69052E-01  4.41138E-01  4.68995E-01  4.74462E-01  4.94612E-01  5.32371E-01
   5.60566E-01  6.03920E-01  5.94437E-01  6.99402E-01  8.19328E-01  8.93624E-01  1.02731E+00  1.17653E+00  1.38724E+00  1.60370E+00
   1.81601E+00  2.05036E+00  2.20802E+00  2.29466E+00  2.26005E+00  2.14058E+00  1.94158E+00  1.74882E+00  1.55912E+00  1.27600E+00
   1.10919E+00  9.52469E-01  8.71751E-01  7.72839E-01  7.09843E-01  6.45567E-01  5.86898E-01  5.71506E-01  5.24267E-01  5.17967E-01
   4.88862E-01  4.67438E-01  4.83955E-01  4.58711E-01  4.47268E-01  4.77751E-01  4.78590E-01  4.68350E-01  4.73539E-01  4.92245E-01
   4.24691E-01  4.23240E-01  4.03513E-01  4.45229E-01  4.01185E-01  4.01149E-01  3.92921E-01  3.95956E-01  3.65672E-01  3.87364E-01
   3.51937E-01  3.48810E-01  3.61671E-01  3.62018E-01  3.15120E-01  3.29129E-01  3.17049E-01  3.32934E-01  3.16618E-01  3.24042E-01
   2.96277E-01  3.28629E-01  3.40255E-01  2.96529E-01  3.11121E-01  3.28983E-01  3.31504E-01  3.35808E-01  3.55761E-01  3.68881E-01
   3.88067E-01  3.93632E-01  4.12801E-01  4.26593E-01  4.42191E-01  4.50155E-01  4.40430E-01  4.14026E-01  4.13127E-01  3.55758E-01
   3.53844E-01  3.27626E-01  3.48244E-01  3.78912E-01  3.66770E-01  4.20347E-01  4.60052E-01  4.20582E-01  3.97275E-01  3.67465E-01
   3.33314E-01  2.87424E-01  2.74682E-01  2.21736E-01  1.92276E-01  2.38073E-01  2.01966E-01  2.12405E-01  2.00708E-01  2.39897E-01
   2.47626E-01  2.28734E-01  2.65715E-01  3.04915E-01  3.09431E-01  3.48925E-01  3.72813E-01  4.14305E-01  3.89378E-01  4.41006E-01
   4.58028E-01  4.57664E-01  4.62057E-01  4.26895E-01  4.48813E-01  4.27829E-01  4.53615E-01  4.88927E-01  5.20102E-01  5.59465E-01
   5.63938E-01  6.05647E-01  5.58337E-01  5.55237E-01  5.36217E-01  5.56933E-01  5.17385E-01  4.87132E-01  4.53776E-01  4.55303E-01
   4.29896E-01  4.03432E-01  3.56865E-01  3.79144E-01  3.43440E-01  3.48147E-01  3.48277E-01  3.39008E-01  3.48761E-01  3.36891E-01
   3.80956E-01  3.79970E-01  3.65029E-01  3.76370E-01  4.05437E-01  3.99117E-01  4.81646E-01  5.37542E-01  5.43081E-01  5.41848E-01
   5.92444E-01  5.85768E-01  6.10895E-01  6.47680E-01  6.60589E-01  6.50737E-01  6.72401E-01  7.10470E-01  7.28422E-01  7.44359E-01
   7.86426E-01  7.88926E-01  7.78944E-01  7.56618E-01  7.20342E-01  6.88634E-01  6.60058E-01  6.05093E-01  5.91538E-01  5.49472E-01
   5.24454E-01  4.91023E-01  5.47873E-01  5.13461E-01  5.55020E-01  5.62083E-01  6.37942E-01  6.62338E-01  7.74875E-01  8.42539E-01
   9.29611E-01  1.00369E+00  1.05843E+00  1.07752E+00  1.07776E+00  1.03741E+00  9.58561E-01  9.10239E-01  8.56109E-01  7.85811E-01
   6.96471E-01  6.56312E-01  6.30835E-01  6.23843E-01  6.21080E-01  6.33316E-01  6.65728E-01  7.17776E-01  7.62029E-01  8.03639E-01
   8.38301E-01  8.19385E-01  8.76745E-01  8.31673E-01  8.21892E-01  7.79357E-01  7.65011E-01  7.44967E-01  7.05453E-01  6.90602E-01
   7.08693E-01  6.50718E-01  6.34613E-01  6.32860E-01  5.99180E-01  5.93202E-01  5.65493E-01  6.09659E-01  6.12475E-01  6.05673E-01
   6.06255E-01  5.94833E-01  6.37901E-01  6.19311E-01  6.32526E-01  6.13798E-01  6.42165E-01  6.36790E-01  6.09100E-01  6.10838E-01
   5.93886E-01  5.76440E-01  5.66492E-01  5.92974E-01  6.01746E-01  5.71555E-01  5.96404E-01  6.14691E-01  6.37992E-01  6.69671E-01
   7.36589E-01  7.43648E-01  7.82955E-01  8.08504E-01  8.54297E-01  8.46232E-01  8.66583E-01  8.58325E-01  8.53844E-01  8.46233E-01
   8.72696E-01  8.84926E-01  9.14044E-01  9.71718E-01  1.00101E+00  1.07433E+00  1.11188E+00  1.18958E+00  1.32186E+00  1.38146E+00
   1.47788E+00  1.57360E+00  1.76521E+00  1.97681E+00  2.11255E+00  2.30658E+00  2.50173E+00  2.76551E+00  3.09844E+00  3.31859E+00
   3.48255E+00  3.39384E+00  3.22935E+00  2.97272E+00  2.61757E+00  2.22516E+00  1.87355E+00  1.56126E+00  1.28249E+00  1.09708E+00
   9.08996E-01  8.05204E-01  7.62721E-01  7.01745E-01  6.65893E-01  6.13601E-01  5.87857E-01  5.17910E-01  5.00598E-01  4.80777E-01
   4.36619E-01  4.47759E-01  4.26914E-01  4.20342E-01  4.11265E-01  4.00329E-01  3.99307E-01  3.94503E-01  3.96364E-01  4.06965E-01
   4.03043E-01  3.66516E-01  3.95368E-01  3.78126E-01  3.68819E-01  3.70885E-01  3.53385E-01  3.19914E-01  3.30616E-01  3.46826E-01
   3.42825E-01  3.17860E-01  3.06857E-01  2.98912E-01  3.19495E-01  2.93681E-01  3.02265E-01  3.16521E-01  3.16492E-01  3.20008E-01
   3.03852E-01  2.97128E-01  2.91806E-01  2.94501E-01  2.98691E-01  2.90268E-01  2.78371E-01  2.82271E-01  2.69478E-01  2.78075E-01
   2.63391E-01  2.66450E-01  2.73987E-01  2.95796E-01  2.69730E-01  3.00752E-01  2.58908E-01  2.98108E-01  2.69429E-01  2.56144E-01
   2.78858E-01  2.60092E-01  2.69602E-01  2.56577E-01  2.57356E-01  2.64555E-01  2.72897E-01  2.74745E-01  2.84871E-01  2.80709E-01
   2.91906E-01  2.83977E-01  2.69391E-01  3.11206E-01  2.60333E-01  2.99409E-01  2.78570E-01  2.98844E-01  3.06867E-01  2.97413E-01
   3.18073E-01  3.30787E-01  3.18507E-01  2.91962E-01  2.95011E-01  3.32556E-01  3.32446E-01  3.57369E-01  3.08103E-01  3.14386E-01
   3.35089E-01  2.97231E-01  3.15188E-01  3.13534E-01  3.04291E-01  3.23845E-01  3.20970E-01  3.09479E-01  2.94240E-01  2.95392E-01
   3.36413E-01  3.13151E-01  3.02608E-01  2.89343E-01  3.13558E-01  3.05147E-01  3.18781E-01  3.03457E-01  3.04313E-01  3.08500E-01
   2.88669E-01  3.08130E-01  3.26026E-01  3.17730E-01  3.14402E-01  3.34081E-01  3.13702E-01  3.29474E-01  3.57397E-01  3.37270E-01
   3.33739E-01  3.40454E-01  3.50801E-01  3.41576E-01  3.35738E-01  3.36636E-01  3.40581E-01  3.58324E-01  3.57060E-01  3.95481E-01
   3.57031E-01  3.63426E-01  3.94998E-01  3.95624E-01  3.96821E-01  3.66524E-01  3.95883E-01  3.72413E-01  3.70575E-01  3.81996E-01
   4.04470E-01  3.80354E-01  3.68440E-01  3.50139E-01  3.83373E-01  3.73309E-01  3.73155E-01  3.84548E-01  3.67151E-01  3.94973E-01
   4.04438E-01  4.05025E-01  3.99907E-01  4.40169E-01  4.03443E-01  4.07674E-01  3.94931E-01  3.64766E-01  3.59934E-01  3.38265E-01
   3.34158E-01  3.22139E-01  3.11230E-01  2.94006E-01  2.72845E-01  2.58724E-01  2.75185E-01  2.40389E-01  2.50881E-01  2.38213E-01
   2.32846E-01  2.45642E-01  2.52041E-01  2.64158E-01  2.36603E-01  2.60932E-01  2.65908E-01  2.36839E-01  2.58318E-01  2.42937E-01
   2.27473E-01  2.35552E-01  2.45271E-01  2.35079E-01  2.44191E-01  2.47387E-01  2.42276E-01  2.51729E-01  2.55804E-01  2.62873E-01
   2.45057E-01  2.46421E-01  2.72166E-01  2.36377E-01  2.69483E-01  2.50730E-01  2.65888E-01  2.55445E-01  2.58943E-01  2.64655E-01
   2.42271E-01  2.61957E-01  2.47119E-01  2.41179E-01  2.42497E-01  2.75282E-01  2.58893E-01  2.64568E-01  2.64461E-01  2.76417E-01
   2.76003E-01  2.45261E-01  2.57367E-01  2.60379E-01  2.64011E-01  2.80024E-01  2.67798E-01  2.87677E-01  2.60661E-01  2.69479E-01
   2.73445E-01  2.99259E-01  2.64646E-01  2.83873E-01  2.91217E-01  2.81177E-01  2.72691E-01  2.70877E-01  2.74451E-01  3.03976E-01
   2.70172E-01  3.00133E-01  3.05661E-01  3.04676E-01  3.34860E-01  3.01437E-01  2.94870E-01  3.24257E-01  3.04385E-01  3.35880E-01
   3.54344E-01  3.46538E-01  3.38870E-01  3.67838E-01  3.76961E-01  3.76924E-01  4.09871E-01  4.14008E-01  3.89209E-01  4.04389E-01
   4.18519E-01  4.47003E-01  4.49932E-01  4.21727E-01  4.58713E-01  4.47447E-01  4.60599E-01  4.89689E-01  4.85844E-01  4.65150E-01
   4.87716E-01  5.00449E-01  4.86535E-01  4.80200E-01  4.93425E-01  4.91992E-01  4.68605E-01  4.92508E-01  5.15875E-01  5.13578E-01
   5.27425E-01  5.27036E-01  5.27519E-01  5.09642E-01  5.20244E-01  5.21993E-01  5.22090E-01  5.18635E-01  5.01434E-01  4.82927E-01
   5.04555E-01  4.75468E-01  4.71260E-01  4.66448E-01  4.25571E-01  4.34683E-01  4.20022E-01  4.28690E-01  4.09180E-01  3.97418E-01
   3.91748E-01  3.96903E-01  3.70807E-01  3.59385E-01  3.75752E-01  3.42026E-01  3.37884E-01  3.27339E-01  3.23724E-01  3.37014E-01
   2.92066E-01  3.13766E-01  2.92992E-01  3.06925E-01  2.89759E-01  3.09811E-01  2.97400E-01  2.66735E-01  2.87948E-01  2.56741E-01
   2.55512E-01  2.37663E-01  2.79240E-01  2.69388E-01  2.53031E-01  2.47932E-01  2.51502E-01  2.61926E-01  2.55909E-01  2.49735E-01
   2.32327E-01  2.46623E-01  2.28006E-01  2.42895E-01  2.25440E-01  2.42350E-01  2.33361E-01  2.48601E-01  2.45666E-01  2.51095E-01
   2.75927E-01  2.49205E-01  2.35817E-01  2.17758E-01  2.35501E-01  2.56204E-01  2.20090E-01  2.45752E-01  2.09775E-01  2.20351E-01
   2.43680E-01  2.33707E-01  2.15405E-01  2.12160E-01  1.92558E-01  2.02396E-01  1.78926E-01  1.94970E-01  2.07297E-01  1.85265E-01
   2.02522E-01  1.85722E-01  2.15577E-01  1.90061E-01  1.99829E-01  2.11665E-01  1.96609E-01  1.94848E-01  1.86332E-01  1.74209E-01
   1.76742E-01  1.72498E-01  1.77741E-01  2.00030E-01
 NY points of the fit to the data follow
   5.66308E-01  5.50232E-01  5.36111E-01  5.24010E-01  5.14449E-01  5.08183E-01  5.05657E-01  5.06780E-01  5.10940E-01  5.17440E-01
   5.26352E-01  5.38813E-01  5.56445E-01  5.80611E-01  6.12397E-01  6.53449E-01  7.05856E-01  7.69293E-01  8.39590E-01  9.14541E-01
   9.99440E-01  1.10222E+00  1.22184E+00  1.34232E+00  1.44079E+00  1.50477E+00  1.54029E+00  1.56122E+00  1.57315E+00  1.56969E+00
   1.54145E+00  1.48529E+00  1.40604E+00  1.31258E+00  1.21337E+00  1.11508E+00  1.02333E+00  9.42555E-01  8.75026E-01  8.21092E-01
   7.79822E-01  7.48928E-01  7.25713E-01  7.08963E-01  6.99137E-01  6.96759E-01  7.01119E-01  7.10276E-01  7.21878E-01  7.33915E-01
   7.45145E-01  7.55173E-01  7.64153E-01  7.72694E-01  7.82006E-01  7.93626E-01  8.08410E-01  8.25200E-01  8.41043E-01  8.54891E-01
   8.70743E-01  8.94743E-01  9.28588E-01  9.66994E-01  1.00222E+00  1.03014E+00  1.05107E+00  1.06608E+00  1.07460E+00  1.07581E+00
   1.07011E+00  1.05795E+00  1.03853E+00  1.01144E+00  9.79264E-01  9.46963E-01  9.18086E-01  8.92611E-01  8.68787E-01  8.46478E-01
   8.27925E-01  8.15358E-01  8.08687E-01  8.05485E-01  8.02583E-01  7.97570E-01  7.89499E-01  7.79194E-01  7.69168E-01  7.62599E-01
   7.61892E-01  7.68214E-01  7.82697E-01  8.07487E-01  8.44724E-01  8.93460E-01  9.47063E-01  9.93557E-01  1.01963E+00  1.01628E+00
   9.82198E-01  9.23122E-01  8.48530E-01  7.68789E-01  6.93634E-01  6.31235E-01  5.87272E-01  5.64435E-01  5.62215E-01  5.77119E-01
   6.05149E-01  6.45783E-01  7.02287E-01  7.77171E-01  8.67773E-01  9.65455E-01  1.05871E+00  1.13628E+00  1.18916E+00  1.21351E+00
   1.21197E+00  1.19080E+00  1.15460E+00  1.10430E+00  1.04030E+00  9.66377E-01  8.89045E-01  8.14213E-01  7.45541E-01  6.85429E-01
   6.35949E-01  5.98847E-01  5.75021E-01  5.63806E-01  5.62635E-01  5.67308E-01  5.73524E-01  5.78433E-01  5.80726E-01  5.80279E-01
   5.77723E-01  5.73606E-01  5.67629E-01  5.58956E-01  5.47429E-01  5.34149E-01  5.20626E-01  5.07603E-01  4.95290E-01  4.84741E-01
   4.78010E-01  4.76322E-01  4.78419E-01  4.81033E-01  4.81004E-01  4.76946E-01  4.69347E-01  4.59613E-01  4.49264E-01  4.39981E-01
   4.33727E-01  4.32403E-01  4.37254E-01  4.48318E-01  4.64155E-01  4.81989E-01  4.98458E-01  5.11247E-01  5.20455E-01  5.28061E-01
   5.35347E-01  5.40598E-01  5.39694E-01  5.29218E-01  5.09021E-01  4.82058E-01  4.52419E-01  4.23863E-01  3.99648E-01  3.82573E-01
   3.74423E-01  3.75578E-01  3.85699E-01  4.04688E-01  4.32130E-01  4.65110E-01  4.98110E-01  5.27321E-01  5.53640E-01  5.80199E-01
   6.07169E-01  6.30030E-01  6.43625E-01  6.47538E-01  6.47034E-01  6.49362E-01  6.60120E-01  6.82821E-01  7.19544E-01  7.69452E-01
   8.28329E-01  8.94906E-01  9.76112E-01  1.08038E+00  1.20432E+00  1.32716E+00  1.41991E+00  1.46183E+00  1.44866E+00  1.38795E+00
   1.29090E+00  1.17031E+00  1.04160E+00  9.20002E-01  8.15619E-01  7.31752E-01  6.66892E-01  6.17269E-01  5.78678E-01  5.47715E-01
   5.22109E-01  5.00633E-01  4.82835E-01  4.68519E-01  4.57428E-01  4.49257E-01  4.43681E-01  4.40387E-01  4.39120E-01  4.39683E-01
   4.41910E-01  4.45663E-01  4.50843E-01  4.57408E-01  4.65439E-01  4.75110E-01  4.86613E-01  5.00187E-01  5.16359E-01  5.36290E-01
   5.62051E-01  5.96829E-01  6.45132E-01  7.12425E-01  8.02510E-01  9.14268E-01  1.04541E+00  1.19850E+00  1.37904E+00  1.58745E+00
