 LCModel (Version 6.3-0D) Copyright: S.W. Provencher.          Ref.: Magn. Reson. Med. 30:672-679 (1993).                
 S06_PRESS_35
 Data of: Dept of Radiology, The Johns Hopkins University School of Medicine
 17-March-2020  16:45
 32 lines in following concentration table = NCONC+1
    Conc.  %SD /Cr+PCr  Metabolite                                         
    0.000 999%   0.000 Asc                                                 
    2.759  21%   1.921 Asp                                                 
    6.200   6%   4.317 Cr                                                  
    1.372  24%   0.955 GABA                                                
    1.128  15%   0.786 GPC                                                 
    2.732   5%   1.902 GSH                                                 
    4.543  11%   3.163 Gln                                                 
   15.478   5%  10.776 Glu                                                 
   10.297   3%   7.169 Ins                                                 
    0.759  35%   0.529 Lac                                                 
   14.957   2%  10.413 NAA                                                 
    1.349  16%   0.939 NAAG                                                
    1.346  13%   0.937 PCh                                                 
    5.291   6%   3.683 PCr                                                 
    1.414  49%   0.984 PE                                                  
    0.356  15%   0.248 Scyllo                                              
    2.649  17%   1.844 Tau                                                 
    0.000 999%   0.000 -CrCH2                                              
    2.474   2%   1.722 PCh+GPC                                             
   11.491   1%   8.000 Cr+PCr                                              
   16.306   1%  11.352 NAA+NAAG                                            
   20.020   4%  13.938 Glu+Gln                                             
    2.306 163%   1.606 Lip13a                                              
    0.000 999%   0.000 Lip13b                                              
    0.750 233%   0.522 Lip09                                               
   11.199  19%   7.797 MM09                                                
    3.195  23%   2.225 Lip20                                               
    5.711  38%   3.976 MM20                                                
    6.622  22%   4.610 MM12                                                
    8.273  28%   5.760 MM14                                                
    4.945  34%   3.442 MM17                                                
   6 lines in following misc. output table
  FWHM = 0.032 ppm    S/N =  48                                            
  Data shift = 0.024 ppm                                                   
  Ph:  -9 deg      -4.1 deg/ppm                                            
  alphaB,S = 3.4E-02,   6.4E+00                                            
   26 spline knots.   Ns = 9(1)                                            
  ( 4) 2 infls.   ( 1) 1 extrs.                                            
  884 points on ppm-axis = NY
      4.000000     3.996038     3.992076     3.988114     3.984152     3.980190     3.976228     3.972266     3.968304     3.964342
      3.960380     3.956418     3.952456     3.948493     3.944531     3.940569     3.936607     3.932645     3.928683     3.924721
      3.920759     3.916797     3.912835     3.908873     3.904911     3.900949     3.896987     3.893025     3.889063     3.885101
      3.881139     3.877177     3.873215     3.869253     3.865291     3.861329     3.857367     3.853405     3.849442     3.845480
      3.841518     3.837556     3.833594     3.829632     3.825670     3.821708     3.817746     3.813784     3.809822     3.805860
      3.801898     3.797936     3.793974     3.790012     3.786050     3.782088     3.778126     3.774164     3.770202     3.766240
      3.762278     3.758316     3.754354     3.750391     3.746429     3.742467     3.738505     3.734543     3.730581     3.726619
      3.722657     3.718695     3.714733     3.710771     3.706809     3.702847     3.698885     3.694923     3.690961     3.686999
      3.683037     3.679075     3.675113     3.671151     3.667189     3.663227     3.659265     3.655303     3.651340     3.647378
      3.643416     3.639454     3.635492     3.631530     3.627568     3.623606     3.619644     3.615682     3.611720     3.607758
      3.603796     3.599834     3.595872     3.591910     3.587948     3.583986     3.580024     3.576062     3.572100     3.568138
      3.564176     3.560214     3.556252     3.552289     3.548327     3.544365     3.540403     3.536441     3.532479     3.528517
      3.524555     3.520593     3.516631     3.512669     3.508707     3.504745     3.500783     3.496821     3.492859     3.488897
      3.484935     3.480973     3.477011     3.473049     3.469087     3.465125     3.461163     3.457201     3.453238     3.449276
      3.445314     3.441352     3.437390     3.433428     3.429466     3.425504     3.421542     3.417580     3.413618     3.409656
      3.405694     3.401732     3.397770     3.393808     3.389846     3.385884     3.381922     3.377960     3.373998     3.370036
      3.366074     3.362112     3.358150     3.354187     3.350225     3.346263     3.342301     3.338339     3.334377     3.330415
      3.326453     3.322491     3.318529     3.314567     3.310605     3.306643     3.302681     3.298719     3.294757     3.290795
      3.286833     3.282871     3.278909     3.274947     3.270985     3.267023     3.263061     3.259099     3.255136     3.251174
      3.247212     3.243250     3.239288     3.235326     3.231364     3.227402     3.223440     3.219478     3.215516     3.211554
      3.207592     3.203630     3.199668     3.195706     3.191744     3.187782     3.183820     3.179858     3.175896     3.171934
      3.167972     3.164010     3.160048     3.156085     3.152123     3.148161     3.144199     3.140237     3.136275     3.132313
      3.128351     3.124389     3.120427     3.116465     3.112503     3.108541     3.104579     3.100617     3.096655     3.092693
      3.088731     3.084769     3.080807     3.076845     3.072883     3.068921     3.064959     3.060997     3.057034     3.053072
      3.049110     3.045148     3.041186     3.037224     3.033262     3.029300     3.025338     3.021376     3.017414     3.013452
      3.009490     3.005528     3.001566     2.997604     2.993642     2.989680     2.985718     2.981756     2.977794     2.973832
      2.969870     2.965908     2.961946     2.957983     2.954021     2.950059     2.946097     2.942135     2.938173     2.934211
      2.930249     2.926287     2.922325     2.918363     2.914401     2.910439     2.906477     2.902515     2.898553     2.894591
      2.890629     2.886667     2.882705     2.878743     2.874781     2.870819     2.866857     2.862895     2.858932     2.854970
      2.851008     2.847046     2.843084     2.839122     2.835160     2.831198     2.827236     2.823274     2.819312     2.815350
      2.811388     2.807426     2.803464     2.799502     2.795540     2.791578     2.787616     2.783654     2.779692     2.775730
      2.771768     2.767806     2.763844     2.759881     2.755919     2.751957     2.747995     2.744033     2.740071     2.736109
      2.732147     2.728185     2.724223     2.720261     2.716299     2.712337     2.708375     2.704413     2.700451     2.696489
      2.692527     2.688565     2.684603     2.680641     2.676679     2.672717     2.668755     2.664793     2.660830     2.656868
      2.652906     2.648944     2.644982     2.641020     2.637058     2.633096     2.629134     2.625172     2.621210     2.617248
      2.613286     2.609324     2.605362     2.601400     2.597438     2.593476     2.589514     2.585552     2.581590     2.577628
      2.573666     2.569704     2.565742     2.561779     2.557817     2.553855     2.549893     2.545931     2.541969     2.538007
      2.534045     2.530083     2.526121     2.522159     2.518197     2.514235     2.510273     2.506311     2.502349     2.498387
      2.494425     2.490463     2.486501     2.482539     2.478577     2.474615     2.470653     2.466691     2.462729     2.458766
      2.454804     2.450842     2.446880     2.442918     2.438956     2.434994     2.431032     2.427070     2.423108     2.419146
      2.415184     2.411222     2.407260     2.403298     2.399336     2.395374     2.391412     2.387450     2.383488     2.379526
      2.375564     2.371602     2.367640     2.363678     2.359715     2.355753     2.351791     2.347829     2.343867     2.339905
      2.335943     2.331981     2.328019     2.324057     2.320095     2.316133     2.312171     2.308209     2.304247     2.300285
      2.296323     2.292361     2.288399     2.284437     2.280475     2.276513     2.272551     2.268589     2.264627     2.260664
      2.256702     2.252740     2.248778     2.244816     2.240854     2.236892     2.232930     2.228968     2.225006     2.221044
      2.217082     2.213120     2.209158     2.205196     2.201234     2.197272     2.193310     2.189348     2.185386     2.181424
      2.177462     2.173500     2.169538     2.165576     2.161613     2.157651     2.153689     2.149727     2.145765     2.141803
      2.137841     2.133879     2.129917     2.125955     2.121993     2.118031     2.114069     2.110107     2.106145     2.102183
      2.098221     2.094259     2.090297     2.086335     2.082373     2.078411     2.074449     2.070487     2.066525     2.062562
      2.058600     2.054638     2.050676     2.046714     2.042752     2.038790     2.034828     2.030866     2.026904     2.022942
      2.018980     2.015018     2.011056     2.007094     2.003132     1.999170     1.995208     1.991246     1.987284     1.983322
      1.979360     1.975398     1.971436     1.967474     1.963511     1.959549     1.955587     1.951625     1.947663     1.943701
      1.939739     1.935777     1.931815     1.927853     1.923891     1.919929     1.915967     1.912005     1.908043     1.904081
      1.900119     1.896157     1.892195     1.888233     1.884271     1.880309     1.876347     1.872385     1.868423     1.864460
      1.860498     1.856536     1.852574     1.848612     1.844650     1.840688     1.836726     1.832764     1.828802     1.824840
      1.820878     1.816916     1.812954     1.808992     1.805030     1.801068     1.797106     1.793144     1.789182     1.785220
      1.781258     1.777296     1.773334     1.769372     1.765409     1.761447     1.757485     1.753523     1.749561     1.745599
      1.741637     1.737675     1.733713     1.729751     1.725789     1.721827     1.717865     1.713903     1.709941     1.705979
      1.702017     1.698055     1.694093     1.690131     1.686169     1.682207     1.678245     1.674283     1.670321     1.666358
      1.662396     1.658434     1.654472     1.650510     1.646548     1.642586     1.638624     1.634662     1.630700     1.626738
      1.622776     1.618814     1.614852     1.610890     1.606928     1.602966     1.599004     1.595042     1.591080     1.587118
      1.583156     1.579194     1.575232     1.571270     1.567307     1.563345     1.559383     1.555421     1.551459     1.547497
      1.543535     1.539573     1.535611     1.531649     1.527687     1.523725     1.519763     1.515801     1.511839     1.507877
      1.503915     1.499953     1.495991     1.492029     1.488067     1.484105     1.480143     1.476181     1.472219     1.468256
      1.464294     1.460332     1.456370     1.452408     1.448446     1.444484     1.440522     1.436560     1.432598     1.428636
      1.424674     1.420712     1.416750     1.412788     1.408826     1.404864     1.400902     1.396940     1.392978     1.389016
      1.385054     1.381092     1.377130     1.373168     1.369205     1.365243     1.361281     1.357319     1.353357     1.349395
      1.345433     1.341471     1.337509     1.333547     1.329585     1.325623     1.321661     1.317699     1.313737     1.309775
      1.305813     1.301851     1.297889     1.293927     1.289965     1.286003     1.282041     1.278079     1.274117     1.270154
      1.266192     1.262230     1.258268     1.254306     1.250344     1.246382     1.242420     1.238458     1.234496     1.230534
      1.226572     1.222610     1.218648     1.214686     1.210724     1.206762     1.202800     1.198838     1.194876     1.190914
      1.186952     1.182990     1.179028     1.175066     1.171103     1.167141     1.163179     1.159217     1.155255     1.151293
      1.147331     1.143369     1.139407     1.135445     1.131483     1.127521     1.123559     1.119597     1.115635     1.111673
      1.107711     1.103749     1.099787     1.095825     1.091863     1.087901     1.083939     1.079977     1.076015     1.072052
      1.068090     1.064128     1.060166     1.056204     1.052242     1.048280     1.044318     1.040356     1.036394     1.032432
      1.028470     1.024508     1.020546     1.016584     1.012622     1.008660     1.004698     1.000736     0.996774     0.992812
      0.988850     0.984888     0.980926     0.976964     0.973001     0.969039     0.965077     0.961115     0.957153     0.953191
      0.949229     0.945267     0.941305     0.937343     0.933381     0.929419     0.925457     0.921495     0.917533     0.913571
      0.909609     0.905647     0.901685     0.897723     0.893761     0.889799     0.885837     0.881875     0.877913     0.873950
      0.869988     0.866026     0.862064     0.858102     0.854140     0.850178     0.846216     0.842254     0.838292     0.834330
      0.830368     0.826406     0.822444     0.818482     0.814520     0.810558     0.806596     0.802634     0.798672     0.794710
      0.790748     0.786786     0.782824     0.778862     0.774899     0.770937     0.766975     0.763013     0.759051     0.755089
      0.751127     0.747165     0.743203     0.739241     0.735279     0.731317     0.727355     0.723393     0.719431     0.715469
      0.711507     0.707545     0.703583     0.699621     0.695659     0.691697     0.687735     0.683773     0.679811     0.675848
      0.671886     0.667924     0.663962     0.660000     0.656038     0.652076     0.648114     0.644152     0.640190     0.636228
      0.632266     0.628304     0.624342     0.620380     0.616418     0.612456     0.608494     0.604532     0.600570     0.596608
      0.592646     0.588684     0.584722     0.580760     0.576797     0.572835     0.568873     0.564911     0.560949     0.556987
      0.553025     0.549063     0.545101     0.541139     0.537177     0.533215     0.529253     0.525291     0.521329     0.517367
      0.513405     0.509443     0.505481     0.501519
 NY phased data points follow
   5.03435E-01  4.73943E-01  4.47421E-01  4.66268E-01  4.92952E-01  4.73811E-01  4.69012E-01  4.85030E-01  4.95058E-01  4.95025E-01
   5.06374E-01  5.14148E-01  5.06835E-01  5.46032E-01  5.52483E-01  5.93231E-01  6.24637E-01  6.88352E-01  7.76896E-01  8.17326E-01
   9.22865E-01  9.79574E-01  1.09042E+00  1.17794E+00  1.25489E+00  1.33655E+00  1.36027E+00  1.44516E+00  1.45124E+00  1.42328E+00
   1.41346E+00  1.34972E+00  1.30186E+00  1.20555E+00  1.13658E+00  1.03582E+00  9.53070E-01  8.67408E-01  7.88016E-01  7.65303E-01
   7.35370E-01  7.15908E-01  6.71056E-01  6.64723E-01  6.56600E-01  6.55274E-01  6.34895E-01  6.64037E-01  6.39707E-01  6.63889E-01
   6.64223E-01  6.70270E-01  7.28704E-01  7.36638E-01  7.26189E-01  7.47053E-01  7.46981E-01  7.87529E-01  8.02231E-01  8.05684E-01
   8.18014E-01  8.26057E-01  8.32724E-01  9.04079E-01  9.11712E-01  9.31722E-01  9.88634E-01  9.86786E-01  1.00179E+00  1.03683E+00
   9.72722E-01  9.95756E-01  9.87043E-01  9.17077E-01  9.01541E-01  8.59893E-01  7.93545E-01  8.13845E-01  7.85855E-01  7.86078E-01
   7.68490E-01  7.59290E-01  7.49232E-01  7.62641E-01  7.39752E-01  7.28149E-01  7.42390E-01  7.11336E-01  7.06251E-01  7.12796E-01
   7.20589E-01  7.45218E-01  7.61586E-01  7.90199E-01  8.57188E-01  8.98274E-01  9.15662E-01  9.62296E-01  9.91630E-01  9.59735E-01
   9.18895E-01  8.91972E-01  7.96199E-01  7.24720E-01  6.98850E-01  6.60228E-01  6.17527E-01  5.63929E-01  5.78829E-01  5.60736E-01
   5.56950E-01  6.24570E-01  6.49609E-01  7.52637E-01  8.13228E-01  9.11449E-01  1.00977E+00  1.07800E+00  1.11410E+00  1.17073E+00
   1.16173E+00  1.13346E+00  1.08738E+00  1.00850E+00  9.92563E-01  9.14266E-01  8.01471E-01  7.35844E-01  6.93898E-01  6.39464E-01
   5.68683E-01  5.07048E-01  5.32045E-01  4.64896E-01  5.14574E-01  4.61034E-01  4.86396E-01  4.95684E-01  5.19552E-01  5.18156E-01
   5.24602E-01  5.41980E-01  5.04121E-01  5.05526E-01  4.91415E-01  5.15677E-01  5.26436E-01  4.95438E-01  5.03247E-01  4.66863E-01
   4.85462E-01  4.52849E-01  4.59898E-01  4.49680E-01  4.50116E-01  4.12276E-01  4.07044E-01  4.04832E-01  3.90982E-01  3.79807E-01
   3.80908E-01  3.80371E-01  3.71893E-01  4.07287E-01  4.15833E-01  4.11390E-01  4.11505E-01  4.34616E-01  4.12839E-01  4.50770E-01
   4.49983E-01  4.70410E-01  4.69176E-01  4.60355E-01  4.40054E-01  4.26068E-01  3.66723E-01  3.61839E-01  3.50865E-01  3.42507E-01
   3.04966E-01  3.46284E-01  3.38222E-01  3.43419E-01  3.37891E-01  4.05826E-01  4.19390E-01  4.98576E-01  5.08605E-01  5.19690E-01
   5.75572E-01  5.81566E-01  6.01342E-01  6.28398E-01  6.37637E-01  6.16381E-01  6.75606E-01  6.77973E-01  7.49955E-01  7.65628E-01
   8.23259E-01  9.01994E-01  1.01945E+00  1.17542E+00  1.30873E+00  1.42651E+00  1.48521E+00  1.53943E+00  1.51680E+00  1.42130E+00
   1.32486E+00  1.20126E+00  1.04989E+00  9.10649E-01  8.32885E-01  7.29193E-01  6.64144E-01  5.93973E-01  5.76473E-01  5.28948E-01
   5.12588E-01  4.60182E-01  4.66504E-01  4.33225E-01  4.27889E-01  4.13905E-01  4.27133E-01  4.08371E-01  4.02009E-01  3.84466E-01
   4.01019E-01  4.07297E-01  3.77796E-01  4.02589E-01  3.91843E-01  4.32393E-01  4.36717E-01  4.35730E-01  4.58937E-01  4.58214E-01
   4.96176E-01  5.17170E-01  5.84602E-01  6.46491E-01  7.38964E-01  8.41917E-01  9.49561E-01  1.11172E+00  1.30786E+00  1.52928E+00
   1.72942E+00  1.87547E+00  2.01753E+00  2.06998E+00  2.03272E+00  1.89516E+00  1.79451E+00  1.59324E+00  1.39357E+00  1.22486E+00
   1.07677E+00  9.02050E-01  8.35612E-01  7.55478E-01  6.68376E-01  6.34955E-01  5.98262E-01  5.57840E-01  4.94883E-01  4.91488E-01
   4.25967E-01  4.42006E-01  4.22320E-01  4.17484E-01  4.20113E-01  4.29995E-01  4.09425E-01  4.03420E-01  4.31164E-01  3.76514E-01
   3.98544E-01  3.68475E-01  3.77911E-01  3.60855E-01  3.50101E-01  3.73523E-01  3.31855E-01  3.40489E-01  3.30057E-01  3.32223E-01
   3.35931E-01  3.08920E-01  2.88596E-01  2.97498E-01  2.87510E-01  2.69644E-01  2.77786E-01  2.89524E-01  2.49733E-01  2.69202E-01
   3.05462E-01  2.71683E-01  2.77571E-01  2.76278E-01  2.55035E-01  2.85498E-01  2.90457E-01  3.03283E-01  2.91789E-01  3.31647E-01
   3.58786E-01  3.50033E-01  3.74801E-01  3.72637E-01  3.88142E-01  3.83578E-01  3.77476E-01  3.56463E-01  3.47932E-01  3.14620E-01
   2.58410E-01  2.84527E-01  2.72959E-01  3.09611E-01  3.01778E-01  2.87422E-01  3.30608E-01  3.29416E-01  3.11258E-01  2.92362E-01
   2.93123E-01  2.83465E-01  2.58961E-01  2.30807E-01  2.13238E-01  2.06195E-01  1.90867E-01  1.77716E-01  1.95988E-01  2.06817E-01
   2.20323E-01  2.09400E-01  2.65554E-01  2.49063E-01  2.60028E-01  2.89604E-01  3.16338E-01  3.78097E-01  3.92071E-01  3.93047E-01
   4.12921E-01  3.71510E-01  4.02898E-01  4.18532E-01  4.20302E-01  3.93118E-01  4.49068E-01  4.60764E-01  4.96565E-01  5.18485E-01
   5.45056E-01  5.34357E-01  5.13480E-01  5.59497E-01  5.41178E-01  5.03078E-01  5.05969E-01  4.85830E-01  4.78016E-01  4.41424E-01
   4.19149E-01  3.89011E-01  3.33844E-01  3.25257E-01  3.60747E-01  3.48981E-01  3.50424E-01  3.17677E-01  3.50657E-01  3.42518E-01
   3.28496E-01  3.55992E-01  3.33748E-01  3.45682E-01  4.00247E-01  3.84931E-01  4.09807E-01  4.15411E-01  4.81386E-01  5.17120E-01
   5.54376E-01  5.61498E-01  6.02032E-01  5.99410E-01  6.15264E-01  6.49964E-01  7.09294E-01  6.97359E-01  7.08103E-01  7.15888E-01
   7.54961E-01  7.45474E-01  6.89130E-01  7.21650E-01  6.70118E-01  7.07852E-01  6.37644E-01  5.93082E-01  5.76070E-01  5.05643E-01
   5.13318E-01  5.22905E-01  5.05555E-01  5.08959E-01  5.39483E-01  5.76388E-01  6.13645E-01  6.72239E-01  7.16977E-01  7.84202E-01
   8.50939E-01  8.77650E-01  9.24851E-01  9.51323E-01  9.44547E-01  9.13634E-01  8.75878E-01  8.33458E-01  7.63481E-01  7.01184E-01
   6.40525E-01  6.27055E-01  5.93406E-01  6.00125E-01  6.17314E-01  6.21386E-01  6.28116E-01  7.40755E-01  7.35853E-01  7.59356E-01
   7.77409E-01  7.87929E-01  7.69779E-01  7.63369E-01  7.81135E-01  7.29474E-01  7.03980E-01  7.05756E-01  6.80993E-01  6.57028E-01
   6.61246E-01  6.28699E-01  6.11192E-01  6.26824E-01  5.85626E-01  6.09352E-01  5.65774E-01  5.66536E-01  5.96948E-01  5.66804E-01
   5.82268E-01  5.79585E-01  5.90258E-01  6.05916E-01  5.90188E-01  5.96704E-01  6.31241E-01  6.08583E-01  6.25234E-01  6.01892E-01
   5.86061E-01  5.93496E-01  5.85802E-01  5.96231E-01  5.87689E-01  5.86218E-01  5.89983E-01  6.32494E-01  6.36900E-01  6.53009E-01
   7.04664E-01  7.13962E-01  7.68571E-01  8.09748E-01  8.16152E-01  8.43620E-01  8.57851E-01  8.52096E-01  8.26235E-01  8.37789E-01
   8.77972E-01  8.96950E-01  9.38086E-01  9.49120E-01  1.00903E+00  1.04294E+00  1.07546E+00  1.12653E+00  1.21125E+00  1.27799E+00
   1.36944E+00  1.43827E+00  1.61333E+00  1.69295E+00  1.86510E+00  2.06026E+00  2.23523E+00  2.49648E+00  2.71820E+00  2.82556E+00
   2.81947E+00  2.75811E+00  2.52204E+00  2.29267E+00  2.03065E+00  1.77085E+00  1.50233E+00  1.27722E+00  1.15443E+00  1.00897E+00
   8.84634E-01  8.07912E-01  7.38749E-01  6.74787E-01  6.55889E-01  6.02427E-01  5.64674E-01  5.27698E-01  4.82578E-01  4.77929E-01
   4.48920E-01  4.35382E-01  4.17786E-01  4.15209E-01  3.85221E-01  3.96055E-01  3.75241E-01  4.02621E-01  4.12388E-01  3.83845E-01
   4.08153E-01  4.13230E-01  3.62566E-01  3.84883E-01  3.25699E-01  3.69837E-01  3.32087E-01  3.07624E-01  3.09709E-01  3.05462E-01
   3.21951E-01  3.17968E-01  3.13299E-01  3.06048E-01  3.25780E-01  3.04765E-01  3.35888E-01  2.92981E-01  3.27204E-01  2.87112E-01
   2.77261E-01  2.57163E-01  2.95142E-01  2.91952E-01  3.03390E-01  3.07655E-01  3.22270E-01  3.13499E-01  3.26267E-01  2.67072E-01
   3.00779E-01  2.87389E-01  2.74224E-01  2.91660E-01  2.99101E-01  2.78836E-01  2.80789E-01  2.99602E-01  2.55300E-01  2.76952E-01
   2.86720E-01  2.85669E-01  3.00240E-01  2.57410E-01  2.95798E-01  3.20944E-01  2.90407E-01  2.88800E-01  3.03108E-01  2.62521E-01
   2.87614E-01  3.23726E-01  3.24185E-01  3.30130E-01  2.81072E-01  3.19399E-01  3.21040E-01  3.41110E-01  3.48864E-01  3.27346E-01
   3.01626E-01  3.42348E-01  3.40000E-01  3.11124E-01  3.28458E-01  3.07517E-01  3.31090E-01  3.28498E-01  3.00875E-01  3.33992E-01
   3.18213E-01  3.25384E-01  3.52642E-01  3.34026E-01  3.21947E-01  3.16193E-01  3.11114E-01  2.92143E-01  3.15364E-01  3.22428E-01
   2.95117E-01  3.02996E-01  2.86278E-01  3.04235E-01  2.94984E-01  2.99480E-01  2.74569E-01  2.80098E-01  2.82684E-01  2.69954E-01
   2.98734E-01  3.15216E-01  3.14545E-01  2.57456E-01  3.04088E-01  3.13376E-01  3.17994E-01  3.33066E-01  3.06717E-01  3.14720E-01
   2.96790E-01  3.02184E-01  2.83581E-01  3.00745E-01  3.34172E-01  3.38051E-01  3.02204E-01  3.58460E-01  3.46970E-01  3.55189E-01
   3.59243E-01  3.19164E-01  3.70793E-01  3.83521E-01  3.79378E-01  3.97166E-01  4.00966E-01  3.85783E-01  3.82000E-01  3.70116E-01
   3.45253E-01  3.63681E-01  3.44386E-01  3.38508E-01  3.31705E-01  3.45493E-01  3.64567E-01  3.36181E-01  3.31671E-01  3.37615E-01
   3.36908E-01  3.54749E-01  3.55286E-01  3.99139E-01  3.73144E-01  3.63454E-01  3.96038E-01  3.52094E-01  3.73781E-01  3.34689E-01
   3.36007E-01  3.22744E-01  3.14325E-01  3.04160E-01  2.79680E-01  2.85985E-01  3.03245E-01  3.11506E-01  2.96188E-01  2.94590E-01
   3.21679E-01  3.30741E-01  3.37767E-01  3.48407E-01  3.31999E-01  3.16135E-01  3.51300E-01  3.64317E-01  3.32221E-01  3.43764E-01
   3.40817E-01  3.37145E-01  3.46098E-01  3.57903E-01  3.13507E-01  3.66093E-01  3.56979E-01  3.40139E-01  3.51603E-01  3.50524E-01
   3.43328E-01  3.27144E-01  3.31242E-01  3.15503E-01  3.06078E-01  3.33903E-01  3.15609E-01  2.97490E-01  3.10787E-01  2.83187E-01
   3.11385E-01  3.13227E-01  2.96344E-01  2.76050E-01  2.53705E-01  2.58002E-01  2.72001E-01  2.66821E-01  2.38115E-01  2.39524E-01
   2.36924E-01  2.10735E-01  2.22897E-01  2.27600E-01  2.40440E-01  2.17386E-01  2.44045E-01  1.93298E-01  2.29799E-01  2.11935E-01
   2.06713E-01  2.26861E-01  2.20068E-01  2.24293E-01  1.87665E-01  2.24565E-01  2.09422E-01  2.00660E-01  2.06033E-01  2.31096E-01
   2.20506E-01  2.16595E-01  2.04972E-01  2.11941E-01  2.36868E-01  2.44845E-01  2.24759E-01  2.62150E-01  2.51279E-01  2.78876E-01
   2.75386E-01  2.86913E-01  2.79518E-01  2.93886E-01  3.25741E-01  3.19899E-01  2.98188E-01  3.20790E-01  3.65305E-01  3.78925E-01
   3.42955E-01  3.87634E-01  3.81788E-01  3.97989E-01  3.89955E-01  4.09701E-01  4.02395E-01  4.18139E-01  4.36164E-01  4.55755E-01
   4.26017E-01  4.33455E-01  4.42293E-01  4.43258E-01  4.50500E-01  4.37352E-01  4.28611E-01  4.36545E-01  4.26027E-01  4.34426E-01
   4.62503E-01  4.63728E-01  4.49101E-01  4.34730E-01  4.38643E-01  4.01313E-01  4.33473E-01  4.25524E-01  4.36361E-01  4.02940E-01
   3.99873E-01  3.98344E-01  3.89093E-01  3.67601E-01  3.49309E-01  3.63209E-01  3.40023E-01  3.44022E-01  3.16750E-01  2.78974E-01
   3.02670E-01  2.93720E-01  3.12468E-01  2.72867E-01  2.80357E-01  2.62038E-01  2.79405E-01  2.49928E-01  2.22657E-01  2.35651E-01
   2.19649E-01  1.95777E-01  2.30467E-01  2.12317E-01  1.93086E-01  1.88604E-01  1.85565E-01  1.97214E-01  1.94110E-01  1.87487E-01
   1.66547E-01  1.79472E-01  1.70576E-01  1.64664E-01  1.53650E-01  1.43520E-01  1.46617E-01  1.45857E-01  1.54093E-01  1.58298E-01
   1.68389E-01  1.18013E-01  1.42917E-01  1.09798E-01  1.60048E-01  1.33528E-01  1.33674E-01  1.23812E-01  1.43202E-01  1.25845E-01
   1.17047E-01  1.28239E-01  1.31342E-01  1.05689E-01  1.47948E-01  1.17331E-01  1.31741E-01  1.24124E-01  1.07655E-01  1.39765E-01
   1.47039E-01  1.31501E-01  1.16991E-01  1.10867E-01  1.20236E-01  1.14932E-01  1.45045E-01  1.31715E-01  1.06468E-01  1.06980E-01
   1.17507E-01  1.44767E-01  1.28179E-01  1.27451E-01  1.23564E-01  1.38598E-01  1.07806E-01  1.09482E-01  1.17161E-01  1.14851E-01
   1.09027E-01  1.13759E-01  1.09233E-01  1.28414E-01
 NY points of the fit to the data follow
   5.34292E-01  5.18282E-01  5.03372E-01  4.88745E-01  4.75942E-01  4.67760E-01  4.64734E-01  4.64946E-01  4.66895E-01  4.70665E-01
   4.77061E-01  4.86926E-01  5.01431E-01  5.22294E-01  5.51158E-01  5.88570E-01  6.32782E-01  6.82677E-01  7.43364E-01  8.19320E-01
   9.09583E-01  1.01120E+00  1.11602E+00  1.21085E+00  1.28931E+00  1.35068E+00  1.39369E+00  1.42251E+00  1.44277E+00  1.44804E+00
   1.42700E+00  1.37916E+00  1.31144E+00  1.23051E+00  1.14323E+00  1.05397E+00  9.65115E-01  8.83777E-01  8.18557E-01  7.69821E-01
   7.31339E-01  6.98486E-01  6.70759E-01  6.49300E-01  6.34492E-01  6.25828E-01  6.22783E-01  6.24865E-01  6.30954E-01  6.39666E-01
   6.49789E-01  6.60214E-01  6.71112E-01  6.84000E-01  6.99394E-01  7.16301E-01  7.33249E-01  7.49559E-01  7.67433E-01  7.89554E-01
   8.16250E-01  8.47042E-01  8.81394E-01  9.16694E-01  9.48231E-01  9.71884E-01  9.86874E-01  9.96339E-01  1.00254E+00  1.00277E+00
   9.93311E-01  9.75669E-01  9.54427E-01  9.31407E-01  9.05594E-01  8.77032E-01  8.48814E-01  8.24188E-01  8.03461E-01  7.85254E-01
   7.70015E-01  7.60046E-01  7.55452E-01  7.52831E-01  7.48518E-01  7.41445E-01  7.33071E-01  7.25708E-01  7.20723E-01  7.18556E-01
   7.20390E-01  7.29500E-01  7.49134E-01  7.80688E-01  8.23019E-01  8.72091E-01  9.19576E-01  9.54896E-01  9.69268E-01  9.58082E-01
   9.21814E-01  8.66034E-01  7.99246E-01  7.30088E-01  6.66406E-01  6.14812E-01  5.79576E-01  5.61477E-01  5.57802E-01  5.66270E-01
   5.87994E-01  6.24917E-01  6.78342E-01  7.49184E-01  8.33090E-01  9.21123E-01  1.00256E+00  1.06681E+00  1.10922E+00  1.13070E+00
   1.13253E+00  1.11490E+00  1.07983E+00  1.03202E+00  9.75261E-01  9.10748E-01  8.40876E-01  7.71895E-01  7.09503E-01  6.54480E-01
   6.06953E-01  5.70613E-01  5.48104E-01  5.37202E-01  5.33168E-01  5.32406E-01  5.33067E-01  5.33404E-01  5.32567E-01  5.30928E-01
   5.28352E-01  5.23853E-01  5.17087E-01  5.08588E-01  4.98669E-01  4.87013E-01  4.73593E-01  4.59789E-01  4.47892E-01  4.38905E-01
   4.32575E-01  4.29147E-01  4.28337E-01  4.27834E-01  4.25126E-01  4.19558E-01  4.11983E-01  4.03848E-01  3.96495E-01  3.90600E-01
   3.87375E-01  3.88683E-01  3.95083E-01  4.05164E-01  4.16662E-01  4.27429E-01  4.36311E-01  4.43262E-01  4.48989E-01  4.53654E-01
   4.56415E-01  4.56062E-01  4.51191E-01  4.40602E-01  4.24417E-01  4.04540E-01  3.83796E-01  3.64924E-01  3.49979E-01  3.40214E-01
   3.36709E-01  3.40968E-01  3.53999E-01  3.74166E-01  3.97745E-01  4.22216E-01  4.48715E-01  4.76563E-01  5.03594E-01  5.29715E-01
   5.54184E-01  5.74711E-01  5.90334E-01  6.01456E-01  6.10433E-01  6.24085E-01  6.49266E-01  6.85743E-01  7.27996E-01  7.75471E-01
   8.38709E-01  9.25948E-01  1.03541E+00  1.16235E+00  1.29683E+00  1.41784E+00  1.50251E+00  1.53438E+00  1.50638E+00  1.42784E+00
   1.31982E+00  1.19560E+00  1.06047E+00  9.28707E-01  8.18712E-01  7.34579E-01  6.67870E-01  6.11123E-01  5.62495E-01  5.22609E-01
   4.91234E-01  4.66433E-01  4.46156E-01  4.29703E-01  4.17128E-01  4.07990E-01  4.01518E-01  3.97242E-01  3.94982E-01  3.94570E-01
   3.95858E-01  3.98851E-01  4.03505E-01  4.09584E-01  4.16892E-01  4.25307E-01  4.34800E-01  4.45808E-01  4.59534E-01  4.78001E-01
   5.04189E-01  5.41909E-01  5.94707E-01  6.63281E-01  7.46124E-01  8.47485E-01  9.72160E-01  1.12080E+00  1.29657E+00  1.49466E+00
