 LCModel (Version 6.3-0D) Copyright: S.W. Provencher.          Ref.: Magn. Reson. Med. 30:672-679 (1993).                
 S09_PRESS_35
 Data of: Dept of Radiology, The Johns Hopkins University School of Medicine
 17-March-2020  16:47
 32 lines in following concentration table = NCONC+1
    Conc.  %SD /Cr+PCr  Metabolite                                         
 5.81E-02 612% 3.9E-02 Asc                                                 
    4.452  13%   3.013 Asp                                                 
    6.458   5%   4.371 Cr                                                  
    0.876  36%   0.593 GABA                                                
    0.777  24%   0.526 GPC                                                 
    2.510   6%   1.699 GSH                                                 
    3.740  13%   2.531 Gln                                                 
   15.214   5%  10.296 Glu                                                 
    9.684   4%   6.554 Ins                                                 
 3.41E-02 689% 2.3E-02 Lac                                                 
   15.789   2%  10.685 NAA                                                 
    1.491  15%   1.009 NAAG                                                
    1.439  13%   0.974 PCh                                                 
    5.363   6%   3.629 PCr                                                 
    2.183  31%   1.477 PE                                                  
    0.279  19%   0.189 Scyllo                                              
    2.008  22%   1.359 Tau                                                 
    0.000 999%   0.000 -CrCH2                                              
    2.216   2%   1.499 PCh+GPC                                             
   11.821   1%   8.000 Cr+PCr                                              
   17.280   2%  11.694 NAA+NAAG                                            
   18.954   5%  12.827 Glu+Gln                                             
   31.633  17%  21.408 Lip13a                                              
    0.000 999%   0.000 Lip13b                                              
    8.390  15%   5.678 Lip09                                               
    0.000 999%   0.000 MM09                                                
    6.394  12%   4.327 Lip20                                               
    3.551  58%   2.403 MM20                                                
    0.722 127%   0.489 MM12                                                
    5.847  31%   3.957 MM14                                                
    4.653  32%   3.149 MM17                                                
   6 lines in following misc. output table
  FWHM = 0.032 ppm    S/N =  52                                            
  Data shift = 0.024 ppm                                                   
  Ph:   1 deg      -1.4 deg/ppm                                            
  alphaB,S = 2.8E-02,   4.0E-01                                            
   26 spline knots.   Ns = 9(1)                                            
   2 inflections.     1 extrema                                            
  884 points on ppm-axis = NY
      4.000000     3.996038     3.992076     3.988114     3.984152     3.980190     3.976228     3.972266     3.968304     3.964342
      3.960380     3.956418     3.952456     3.948493     3.944531     3.940569     3.936607     3.932645     3.928683     3.924721
      3.920759     3.916797     3.912835     3.908873     3.904911     3.900949     3.896987     3.893025     3.889063     3.885101
      3.881139     3.877177     3.873215     3.869253     3.865291     3.861329     3.857367     3.853405     3.849442     3.845480
      3.841518     3.837556     3.833594     3.829632     3.825670     3.821708     3.817746     3.813784     3.809822     3.805860
      3.801898     3.797936     3.793974     3.790012     3.786050     3.782088     3.778126     3.774164     3.770202     3.766240
      3.762278     3.758316     3.754354     3.750391     3.746429     3.742467     3.738505     3.734543     3.730581     3.726619
      3.722657     3.718695     3.714733     3.710771     3.706809     3.702847     3.698885     3.694923     3.690961     3.686999
      3.683037     3.679075     3.675113     3.671151     3.667189     3.663227     3.659265     3.655303     3.651340     3.647378
      3.643416     3.639454     3.635492     3.631530     3.627568     3.623606     3.619644     3.615682     3.611720     3.607758
      3.603796     3.599834     3.595872     3.591910     3.587948     3.583986     3.580024     3.576062     3.572100     3.568138
      3.564176     3.560214     3.556252     3.552289     3.548327     3.544365     3.540403     3.536441     3.532479     3.528517
      3.524555     3.520593     3.516631     3.512669     3.508707     3.504745     3.500783     3.496821     3.492859     3.488897
      3.484935     3.480973     3.477011     3.473049     3.469087     3.465125     3.461163     3.457201     3.453238     3.449276
      3.445314     3.441352     3.437390     3.433428     3.429466     3.425504     3.421542     3.417580     3.413618     3.409656
      3.405694     3.401732     3.397770     3.393808     3.389846     3.385884     3.381922     3.377960     3.373998     3.370036
      3.366074     3.362112     3.358150     3.354187     3.350225     3.346263     3.342301     3.338339     3.334377     3.330415
      3.326453     3.322491     3.318529     3.314567     3.310605     3.306643     3.302681     3.298719     3.294757     3.290795
      3.286833     3.282871     3.278909     3.274947     3.270985     3.267023     3.263061     3.259099     3.255136     3.251174
      3.247212     3.243250     3.239288     3.235326     3.231364     3.227402     3.223440     3.219478     3.215516     3.211554
      3.207592     3.203630     3.199668     3.195706     3.191744     3.187782     3.183820     3.179858     3.175896     3.171934
      3.167972     3.164010     3.160048     3.156085     3.152123     3.148161     3.144199     3.140237     3.136275     3.132313
      3.128351     3.124389     3.120427     3.116465     3.112503     3.108541     3.104579     3.100617     3.096655     3.092693
      3.088731     3.084769     3.080807     3.076845     3.072883     3.068921     3.064959     3.060997     3.057034     3.053072
      3.049110     3.045148     3.041186     3.037224     3.033262     3.029300     3.025338     3.021376     3.017414     3.013452
      3.009490     3.005528     3.001566     2.997604     2.993642     2.989680     2.985718     2.981756     2.977794     2.973832
      2.969870     2.965908     2.961946     2.957983     2.954021     2.950059     2.946097     2.942135     2.938173     2.934211
      2.930249     2.926287     2.922325     2.918363     2.914401     2.910439     2.906477     2.902515     2.898553     2.894591
      2.890629     2.886667     2.882705     2.878743     2.874781     2.870819     2.866857     2.862895     2.858932     2.854970
      2.851008     2.847046     2.843084     2.839122     2.835160     2.831198     2.827236     2.823274     2.819312     2.815350
      2.811388     2.807426     2.803464     2.799502     2.795540     2.791578     2.787616     2.783654     2.779692     2.775730
      2.771768     2.767806     2.763844     2.759881     2.755919     2.751957     2.747995     2.744033     2.740071     2.736109
      2.732147     2.728185     2.724223     2.720261     2.716299     2.712337     2.708375     2.704413     2.700451     2.696489
      2.692527     2.688565     2.684603     2.680641     2.676679     2.672717     2.668755     2.664793     2.660830     2.656868
      2.652906     2.648944     2.644982     2.641020     2.637058     2.633096     2.629134     2.625172     2.621210     2.617248
      2.613286     2.609324     2.605362     2.601400     2.597438     2.593476     2.589514     2.585552     2.581590     2.577628
      2.573666     2.569704     2.565742     2.561779     2.557817     2.553855     2.549893     2.545931     2.541969     2.538007
      2.534045     2.530083     2.526121     2.522159     2.518197     2.514235     2.510273     2.506311     2.502349     2.498387
      2.494425     2.490463     2.486501     2.482539     2.478577     2.474615     2.470653     2.466691     2.462729     2.458766
      2.454804     2.450842     2.446880     2.442918     2.438956     2.434994     2.431032     2.427070     2.423108     2.419146
      2.415184     2.411222     2.407260     2.403298     2.399336     2.395374     2.391412     2.387450     2.383488     2.379526
      2.375564     2.371602     2.367640     2.363678     2.359715     2.355753     2.351791     2.347829     2.343867     2.339905
      2.335943     2.331981     2.328019     2.324057     2.320095     2.316133     2.312171     2.308209     2.304247     2.300285
      2.296323     2.292361     2.288399     2.284437     2.280475     2.276513     2.272551     2.268589     2.264627     2.260664
      2.256702     2.252740     2.248778     2.244816     2.240854     2.236892     2.232930     2.228968     2.225006     2.221044
      2.217082     2.213120     2.209158     2.205196     2.201234     2.197272     2.193310     2.189348     2.185386     2.181424
      2.177462     2.173500     2.169538     2.165576     2.161613     2.157651     2.153689     2.149727     2.145765     2.141803
      2.137841     2.133879     2.129917     2.125955     2.121993     2.118031     2.114069     2.110107     2.106145     2.102183
      2.098221     2.094259     2.090297     2.086335     2.082373     2.078411     2.074449     2.070487     2.066525     2.062562
      2.058600     2.054638     2.050676     2.046714     2.042752     2.038790     2.034828     2.030866     2.026904     2.022942
      2.018980     2.015018     2.011056     2.007094     2.003132     1.999170     1.995208     1.991246     1.987284     1.983322
      1.979360     1.975398     1.971436     1.967474     1.963511     1.959549     1.955587     1.951625     1.947663     1.943701
      1.939739     1.935777     1.931815     1.927853     1.923891     1.919929     1.915967     1.912005     1.908043     1.904081
      1.900119     1.896157     1.892195     1.888233     1.884271     1.880309     1.876347     1.872385     1.868423     1.864460
      1.860498     1.856536     1.852574     1.848612     1.844650     1.840688     1.836726     1.832764     1.828802     1.824840
      1.820878     1.816916     1.812954     1.808992     1.805030     1.801068     1.797106     1.793144     1.789182     1.785220
      1.781258     1.777296     1.773334     1.769372     1.765409     1.761447     1.757485     1.753523     1.749561     1.745599
      1.741637     1.737675     1.733713     1.729751     1.725789     1.721827     1.717865     1.713903     1.709941     1.705979
      1.702017     1.698055     1.694093     1.690131     1.686169     1.682207     1.678245     1.674283     1.670321     1.666358
      1.662396     1.658434     1.654472     1.650510     1.646548     1.642586     1.638624     1.634662     1.630700     1.626738
      1.622776     1.618814     1.614852     1.610890     1.606928     1.602966     1.599004     1.595042     1.591080     1.587118
      1.583156     1.579194     1.575232     1.571270     1.567307     1.563345     1.559383     1.555421     1.551459     1.547497
      1.543535     1.539573     1.535611     1.531649     1.527687     1.523725     1.519763     1.515801     1.511839     1.507877
      1.503915     1.499953     1.495991     1.492029     1.488067     1.484105     1.480143     1.476181     1.472219     1.468256
      1.464294     1.460332     1.456370     1.452408     1.448446     1.444484     1.440522     1.436560     1.432598     1.428636
      1.424674     1.420712     1.416750     1.412788     1.408826     1.404864     1.400902     1.396940     1.392978     1.389016
      1.385054     1.381092     1.377130     1.373168     1.369205     1.365243     1.361281     1.357319     1.353357     1.349395
      1.345433     1.341471     1.337509     1.333547     1.329585     1.325623     1.321661     1.317699     1.313737     1.309775
      1.305813     1.301851     1.297889     1.293927     1.289965     1.286003     1.282041     1.278079     1.274117     1.270154
      1.266192     1.262230     1.258268     1.254306     1.250344     1.246382     1.242420     1.238458     1.234496     1.230534
      1.226572     1.222610     1.218648     1.214686     1.210724     1.206762     1.202800     1.198838     1.194876     1.190914
      1.186952     1.182990     1.179028     1.175066     1.171103     1.167141     1.163179     1.159217     1.155255     1.151293
      1.147331     1.143369     1.139407     1.135445     1.131483     1.127521     1.123559     1.119597     1.115635     1.111673
      1.107711     1.103749     1.099787     1.095825     1.091863     1.087901     1.083939     1.079977     1.076015     1.072052
      1.068090     1.064128     1.060166     1.056204     1.052242     1.048280     1.044318     1.040356     1.036394     1.032432
      1.028470     1.024508     1.020546     1.016584     1.012622     1.008660     1.004698     1.000736     0.996774     0.992812
      0.988850     0.984888     0.980926     0.976964     0.973001     0.969039     0.965077     0.961115     0.957153     0.953191
      0.949229     0.945267     0.941305     0.937343     0.933381     0.929419     0.925457     0.921495     0.917533     0.913571
      0.909609     0.905647     0.901685     0.897723     0.893761     0.889799     0.885837     0.881875     0.877913     0.873950
      0.869988     0.866026     0.862064     0.858102     0.854140     0.850178     0.846216     0.842254     0.838292     0.834330
      0.830368     0.826406     0.822444     0.818482     0.814520     0.810558     0.806596     0.802634     0.798672     0.794710
      0.790748     0.786786     0.782824     0.778862     0.774899     0.770937     0.766975     0.763013     0.759051     0.755089
      0.751127     0.747165     0.743203     0.739241     0.735279     0.731317     0.727355     0.723393     0.719431     0.715469
      0.711507     0.707545     0.703583     0.699621     0.695659     0.691697     0.687735     0.683773     0.679811     0.675848
      0.671886     0.667924     0.663962     0.660000     0.656038     0.652076     0.648114     0.644152     0.640190     0.636228
      0.632266     0.628304     0.624342     0.620380     0.616418     0.612456     0.608494     0.604532     0.600570     0.596608
      0.592646     0.588684     0.584722     0.580760     0.576797     0.572835     0.568873     0.564911     0.560949     0.556987
      0.553025     0.549063     0.545101     0.541139     0.537177     0.533215     0.529253     0.525291     0.521329     0.517367
      0.513405     0.509443     0.505481     0.501519
 NY phased data points follow
   4.22853E-01  4.47874E-01  4.60879E-01  4.65716E-01  4.36486E-01  4.36264E-01  4.31368E-01  4.49534E-01  4.36927E-01  4.48175E-01
   4.73883E-01  4.45037E-01  4.81102E-01  5.03196E-01  5.35959E-01  5.40671E-01  6.15633E-01  6.31596E-01  6.90540E-01  7.42403E-01
   8.45325E-01  9.55284E-01  1.00759E+00  1.10875E+00  1.16217E+00  1.24776E+00  1.34358E+00  1.39573E+00  1.42725E+00  1.44629E+00
   1.42070E+00  1.35299E+00  1.31450E+00  1.18327E+00  1.11984E+00  1.02012E+00  9.94734E-01  9.10195E-01  8.45860E-01  7.66603E-01
   7.29280E-01  6.99209E-01  6.91676E-01  6.28134E-01  6.47786E-01  5.90257E-01  5.99266E-01  6.41365E-01  6.15370E-01  6.35416E-01
   6.43484E-01  6.27513E-01  6.37804E-01  6.39993E-01  6.72730E-01  7.10725E-01  7.53718E-01  7.46747E-01  7.54332E-01  7.70636E-01
   7.93479E-01  7.47440E-01  7.84876E-01  8.06476E-01  8.58548E-01  8.74037E-01  9.36043E-01  9.63802E-01  1.01862E+00  1.02746E+00
   9.90664E-01  9.85577E-01  9.55343E-01  9.11332E-01  8.66452E-01  8.40719E-01  7.89493E-01  7.60122E-01  7.61947E-01  7.54021E-01
   7.67954E-01  7.86244E-01  7.65345E-01  7.44035E-01  7.59051E-01  7.43449E-01  7.65467E-01  7.14062E-01  7.08722E-01  7.04437E-01
   6.75776E-01  6.79029E-01  7.33978E-01  7.39279E-01  8.12543E-01  7.98012E-01  8.72497E-01  9.36128E-01  9.27304E-01  9.53432E-01
   9.22084E-01  8.30057E-01  8.28411E-01  7.68383E-01  6.96142E-01  6.42248E-01  6.39537E-01  5.82232E-01  5.37280E-01  5.54939E-01
   5.56414E-01  5.62445E-01  5.92275E-01  6.81074E-01  7.41982E-01  8.14733E-01  9.38993E-01  1.02634E+00  1.08929E+00  1.09264E+00
   1.11577E+00  1.10045E+00  1.02986E+00  1.04550E+00  9.78552E-01  8.71037E-01  8.02294E-01  7.76369E-01  6.75350E-01  6.20561E-01
   5.89438E-01  5.63926E-01  5.33568E-01  5.24154E-01  5.02283E-01  4.99290E-01  4.91941E-01  4.92868E-01  4.99879E-01  4.87468E-01
   4.97841E-01  4.92562E-01  5.14876E-01  5.13501E-01  5.16353E-01  5.03408E-01  4.84169E-01  4.42507E-01  4.61575E-01  4.71986E-01
   4.47626E-01  4.54402E-01  4.45606E-01  4.10791E-01  4.12357E-01  4.29873E-01  3.71307E-01  3.84854E-01  4.03906E-01  3.65085E-01
   3.69627E-01  3.48941E-01  3.85120E-01  3.37875E-01  3.90961E-01  3.78801E-01  3.60612E-01  3.92620E-01  4.13160E-01  4.15023E-01
   4.25857E-01  4.65324E-01  4.43675E-01  4.39561E-01  4.17592E-01  3.96262E-01  3.69486E-01  3.37875E-01  3.36778E-01  3.30890E-01
   3.09417E-01  3.19129E-01  3.14309E-01  3.75386E-01  3.87223E-01  3.78479E-01  4.19196E-01  4.29613E-01  4.64370E-01  5.19790E-01
   5.60602E-01  5.59491E-01  6.36163E-01  6.15538E-01  6.22485E-01  6.14612E-01  6.44613E-01  6.45515E-01  6.68528E-01  6.57462E-01
   7.21913E-01  7.61492E-01  9.26341E-01  1.03049E+00  1.20673E+00  1.30375E+00  1.38704E+00  1.45112E+00  1.42995E+00  1.35199E+00
   1.26963E+00  1.14091E+00  1.04690E+00  9.44811E-01  8.42249E-01  7.65077E-01  7.11300E-01  6.55496E-01  5.77980E-01  5.71570E-01
   5.29254E-01  4.92021E-01  4.94233E-01  4.82420E-01  4.68119E-01  4.37033E-01  4.30512E-01  4.41538E-01  4.11591E-01  4.27508E-01
   4.41460E-01  4.04241E-01  3.93249E-01  4.53247E-01  4.43743E-01  4.24515E-01  4.53466E-01  4.55611E-01  4.73747E-01  4.70785E-01
   5.20990E-01  5.52939E-01  6.08421E-01  6.65282E-01  6.81454E-01  7.72624E-01  8.86586E-01  1.05351E+00  1.26637E+00  1.48435E+00
   1.71590E+00  1.96343E+00  2.06358E+00  2.14992E+00  2.10319E+00  2.00351E+00  1.86810E+00  1.67420E+00  1.52629E+00  1.33711E+00
   1.18733E+00  1.05486E+00  9.39559E-01  8.50117E-01  7.77276E-01  6.95165E-01  6.40951E-01  6.06157E-01  5.59092E-01  5.26324E-01
   5.08012E-01  4.90182E-01  5.04225E-01  4.66222E-01  4.38795E-01  4.64083E-01  4.42691E-01  4.65613E-01  4.69102E-01  4.53471E-01
   4.33253E-01  4.43075E-01  4.24637E-01  4.13456E-01  4.08259E-01  3.93333E-01  3.85131E-01  3.70712E-01  3.73634E-01  3.84374E-01
   3.88021E-01  3.89770E-01  3.90350E-01  3.63629E-01  3.63667E-01  3.10926E-01  3.48031E-01  3.12836E-01  3.45652E-01  3.32572E-01
   3.27570E-01  3.04256E-01  3.15599E-01  3.08790E-01  3.00331E-01  3.21970E-01  3.06323E-01  3.23966E-01  3.29797E-01  3.53352E-01
   3.63698E-01  3.53301E-01  4.26500E-01  4.50491E-01  4.53491E-01  4.26343E-01  4.35437E-01  3.64514E-01  3.64045E-01  3.35198E-01
   3.06271E-01  3.27369E-01  3.36091E-01  3.53339E-01  3.69512E-01  3.96926E-01  4.06966E-01  4.06150E-01  3.64805E-01  3.68266E-01
   3.17418E-01  3.22551E-01  2.90581E-01  2.58947E-01  2.19745E-01  2.56104E-01  2.01484E-01  2.34695E-01  2.40383E-01  2.33455E-01
   2.38323E-01  2.71642E-01  2.88981E-01  2.73996E-01  3.23163E-01  3.44278E-01  3.65633E-01  4.06240E-01  4.50911E-01  4.26194E-01
   4.19373E-01  4.41108E-01  4.11974E-01  3.70516E-01  4.16915E-01  4.20586E-01  4.37432E-01  4.52061E-01  5.10959E-01  5.33541E-01
   5.50723E-01  5.60401E-01  5.48141E-01  5.55837E-01  5.20037E-01  5.51764E-01  5.01612E-01  4.98292E-01  4.80807E-01  4.30347E-01
   4.17915E-01  3.88367E-01  3.66681E-01  3.55713E-01  3.65365E-01  3.33571E-01  3.33277E-01  3.27504E-01  3.56418E-01  3.63377E-01
   3.41020E-01  3.60603E-01  3.59959E-01  3.52418E-01  4.11469E-01  4.23149E-01  4.72894E-01  4.96236E-01  4.90443E-01  5.46701E-01
   5.50904E-01  5.99992E-01  5.95568E-01  5.97127E-01  6.40061E-01  6.05854E-01  6.42772E-01  6.77009E-01  7.36005E-01  7.37061E-01
   7.15481E-01  7.66487E-01  7.38440E-01  7.33220E-01  7.40872E-01  6.84151E-01  6.69004E-01  6.25450E-01  6.11866E-01  5.86855E-01
   5.48793E-01  5.38538E-01  5.21085E-01  5.20217E-01  5.34955E-01  5.55119E-01  5.47990E-01  6.41078E-01  6.98399E-01  7.74038E-01
   8.67345E-01  9.43465E-01  9.64284E-01  9.91090E-01  1.01139E+00  9.60711E-01  9.02586E-01  8.50210E-01  8.17210E-01  7.24478E-01
   6.95642E-01  6.71347E-01  6.29394E-01  6.06561E-01  6.31974E-01  6.46667E-01  6.78012E-01  7.31554E-01  7.48223E-01  7.80900E-01
   7.95214E-01  8.05713E-01  7.84108E-01  7.71128E-01  7.52539E-01  7.82178E-01  7.51033E-01  7.29222E-01  7.26894E-01  6.61624E-01
   6.50631E-01  6.70382E-01  6.51681E-01  6.29981E-01  6.17622E-01  5.94277E-01  5.78144E-01  6.05743E-01  5.89396E-01  5.98157E-01
   6.02823E-01  6.12714E-01  5.93515E-01  6.51793E-01  5.96557E-01  6.42248E-01  6.22333E-01  6.48192E-01  6.34777E-01  6.39537E-01
   6.11454E-01  6.45927E-01  5.91538E-01  6.04856E-01  6.09660E-01  6.02850E-01  5.91565E-01  6.06297E-01  6.44200E-01  6.67816E-01
   6.69633E-01  7.42519E-01  7.94461E-01  8.37172E-01  8.44444E-01  8.48484E-01  8.85489E-01  8.34798E-01  9.09000E-01  9.15081E-01
   9.19256E-01  9.48600E-01  9.68123E-01  9.73292E-01  1.03876E+00  1.04556E+00  1.10612E+00  1.19400E+00  1.27296E+00  1.32953E+00
   1.38925E+00  1.45807E+00  1.52136E+00  1.61353E+00  1.75931E+00  2.00557E+00  2.24816E+00  2.60376E+00  2.88536E+00  2.98322E+00
   3.01627E+00  2.91909E+00  2.72519E+00  2.48992E+00  2.23692E+00  1.97841E+00  1.71899E+00  1.46448E+00  1.29972E+00  1.11860E+00
   9.68974E-01  8.96415E-01  8.03255E-01  7.09265E-01  6.84986E-01  6.07861E-01  5.73505E-01  5.39792E-01  4.96360E-01  4.53387E-01
   4.34594E-01  4.02884E-01  3.90405E-01  3.84190E-01  3.95870E-01  3.62049E-01  3.70643E-01  3.37508E-01  3.46623E-01  3.41806E-01
   3.57509E-01  3.31911E-01  3.44406E-01  3.24226E-01  3.18611E-01  3.23929E-01  2.94798E-01  3.06418E-01  2.89965E-01  2.76274E-01
   2.82514E-01  2.63397E-01  2.68007E-01  2.62712E-01  2.97005E-01  2.38926E-01  2.28045E-01  2.78904E-01  2.64653E-01  2.58061E-01
   2.76737E-01  2.53855E-01  2.48224E-01  2.50425E-01  2.98032E-01  2.38285E-01  2.77925E-01  2.39523E-01  2.60410E-01  2.29763E-01
   2.59046E-01  2.47440E-01  2.52741E-01  2.36312E-01  2.58448E-01  2.49381E-01  2.42947E-01  2.40930E-01  2.63324E-01  2.50516E-01
   2.38064E-01  2.79364E-01  2.59686E-01  2.34288E-01  2.60379E-01  2.20018E-01  2.78164E-01  2.61691E-01  2.46507E-01  2.57314E-01
   2.61654E-01  2.78552E-01  2.62581E-01  2.50698E-01  2.83770E-01  2.85514E-01  3.03139E-01  2.71187E-01  2.99337E-01  2.68976E-01
   3.26282E-01  3.17129E-01  2.95665E-01  3.06740E-01  2.88945E-01  3.09599E-01  2.84590E-01  2.85126E-01  3.25995E-01  2.68894E-01
   2.85835E-01  2.95151E-01  2.86498E-01  2.61474E-01  3.00034E-01  2.75217E-01  3.03339E-01  2.65579E-01  2.84815E-01  2.90890E-01
   2.53301E-01  2.42010E-01  2.81375E-01  2.97715E-01  2.53139E-01  2.90778E-01  2.57414E-01  2.46847E-01  2.70036E-01  2.89798E-01
   2.58956E-01  2.78858E-01  2.57124E-01  2.76666E-01  2.70735E-01  2.68920E-01  3.16978E-01  2.69757E-01  2.97933E-01  2.81079E-01
   2.96226E-01  3.17387E-01  3.03767E-01  2.86374E-01  3.10696E-01  3.08460E-01  3.04814E-01  2.95753E-01  3.21125E-01  3.20452E-01
   3.43146E-01  3.30058E-01  3.58373E-01  3.44657E-01  3.41357E-01  3.62082E-01  3.46174E-01  3.60639E-01  3.78842E-01  3.59201E-01
   3.35134E-01  3.60462E-01  3.74347E-01  3.40960E-01  3.53787E-01  3.54592E-01  3.61980E-01  3.50370E-01  3.54526E-01  3.56438E-01
   3.62243E-01  3.68957E-01  3.54870E-01  3.56877E-01  3.55511E-01  3.53060E-01  3.59263E-01  3.69079E-01  3.25871E-01  3.28178E-01
   3.47379E-01  3.36417E-01  3.05108E-01  2.81343E-01  3.09759E-01  2.72108E-01  2.86854E-01  2.96435E-01  3.00864E-01  2.86290E-01
   2.96743E-01  2.99150E-01  3.19829E-01  3.01922E-01  3.29228E-01  3.17052E-01  3.14671E-01  2.97488E-01  2.85747E-01  2.89242E-01
   2.51834E-01  2.83272E-01  2.65659E-01  3.14400E-01  2.93962E-01  2.78857E-01  2.82246E-01  2.50505E-01  2.93837E-01  2.68058E-01
   2.86592E-01  2.69845E-01  2.52643E-01  2.52972E-01  2.67948E-01  2.78402E-01  2.34033E-01  2.64503E-01  2.31064E-01  2.37403E-01
   2.60527E-01  2.27460E-01  2.16782E-01  2.07794E-01  2.31502E-01  1.86393E-01  2.35088E-01  2.25483E-01  1.96764E-01  1.95906E-01
   1.98904E-01  1.67916E-01  1.62209E-01  1.81812E-01  1.58839E-01  1.25033E-01  1.48442E-01  1.49446E-01  1.33913E-01  1.41688E-01
   1.38336E-01  1.25525E-01  1.16479E-01  1.36411E-01  1.31613E-01  6.43685E-02  1.27165E-01  1.18276E-01  7.59823E-02  9.20064E-02
   9.38868E-02  1.05423E-01  7.99073E-02  1.01225E-01  1.28488E-01  1.17202E-01  1.05201E-01  1.06262E-01  1.19354E-01  9.78399E-02
   1.41486E-01  1.24978E-01  1.00734E-01  1.30099E-01  1.46137E-01  1.27167E-01  1.65564E-01  1.82546E-01  1.61956E-01  1.51006E-01
   1.71064E-01  2.08742E-01  1.94661E-01  1.96659E-01  2.61263E-01  2.58124E-01  2.54401E-01  2.44835E-01  2.99579E-01  2.85402E-01
   2.87200E-01  2.66768E-01  3.24484E-01  3.34418E-01  3.38710E-01  3.24444E-01  3.40819E-01  3.50941E-01  3.09733E-01  3.73872E-01
   3.65895E-01  3.61714E-01  3.65319E-01  3.73505E-01  3.80683E-01  3.49416E-01  3.79480E-01  3.59264E-01  3.50321E-01  3.60610E-01
   3.60835E-01  3.57181E-01  3.51201E-01  3.48820E-01  3.01467E-01  2.88202E-01  3.01835E-01  2.88673E-01  2.71429E-01  2.50003E-01
   2.59722E-01  2.38079E-01  2.64139E-01  2.83436E-01  2.17742E-01  1.92218E-01  2.05487E-01  1.88336E-01  1.68736E-01  1.86720E-01
   1.90853E-01  1.56827E-01  1.72146E-01  1.58952E-01  1.41467E-01  1.30224E-01  1.74448E-01  1.62389E-01  1.38591E-01  1.40776E-01
   1.17111E-01  1.50695E-01  1.43120E-01  1.25116E-01  1.21292E-01  1.27606E-01  9.74738E-02  9.79886E-02  9.78020E-02  1.40805E-01
   8.45021E-02  1.29942E-01  1.32103E-01  8.19839E-02  9.52927E-02  1.19403E-01  1.03315E-01  7.74607E-02  4.61510E-02  6.79336E-02
   2.98996E-02  5.71870E-02  9.10371E-02  1.05695E-01  4.22059E-02  8.10581E-02  9.14707E-02  6.82543E-02  7.87649E-02  8.53969E-02
   5.69842E-02  3.38519E-02  2.76290E-02  6.31634E-02  6.64517E-02  5.30648E-02  6.77447E-02  5.33737E-02  4.85093E-02  9.19787E-02
   5.32901E-02  2.78628E-02  7.93500E-02  5.53497E-02  5.60874E-02  6.51141E-02  4.04302E-02  4.86115E-02  4.30759E-02  6.78353E-02
   5.41083E-02  7.93434E-02  6.11017E-02  8.91488E-02
 NY points of the fit to the data follow
   4.88721E-01  4.69963E-01  4.60344E-01  4.51546E-01  4.42104E-01  4.35788E-01  4.31791E-01  4.29931E-01  4.30747E-01  4.32793E-01
   4.37495E-01  4.46024E-01  4.59938E-01  4.81325E-01  5.11199E-01  5.45690E-01  5.75428E-01  6.12126E-01  6.75579E-01  7.52387E-01
   8.46731E-01  9.56437E-01  1.05792E+00  1.13773E+00  1.20894E+00  1.27694E+00  1.33597E+00  1.38732E+00  1.43755E+00  1.46052E+00
   1.44115E+00  1.39765E+00  1.32842E+00  1.23175E+00  1.14325E+00  1.06315E+00  9.79990E-01  9.02431E-01  8.33688E-01  7.71737E-01
   7.24665E-01  6.87086E-01  6.53439E-01  6.26028E-01  6.07580E-01  5.99047E-01  5.98668E-01  6.02326E-01  6.08581E-01  6.18278E-01
   6.26726E-01  6.33197E-01  6.43899E-01  6.58242E-01  6.72978E-01  6.88378E-01  7.00109E-01  7.04726E-01  7.11597E-01  7.25948E-01
   7.45630E-01  7.73240E-01  8.10360E-01  8.51862E-01  8.86637E-01  9.15299E-01  9.44384E-01  9.66358E-01  9.79697E-01  9.89716E-01
   9.89258E-01  9.75566E-01  9.51921E-01  9.22815E-01  8.94649E-01  8.67076E-01  8.39034E-01  8.12550E-01  7.88771E-01  7.70321E-01
   7.59622E-01  7.55333E-01  7.53492E-01  7.53120E-01  7.51040E-01  7.44624E-01  7.34221E-01  7.21712E-01  7.09907E-01  6.98977E-01
   6.88608E-01  6.85005E-01  6.93317E-01  7.20324E-01  7.64913E-01  8.21292E-01  8.75483E-01  9.17140E-01  9.36659E-01  9.28802E-01
   8.96049E-01  8.47068E-01  7.90197E-01  7.31982E-01  6.77561E-01  6.33907E-01  6.00340E-01  5.74536E-01  5.54353E-01  5.47402E-01
   5.55808E-01  5.78182E-01  6.21186E-01  6.91392E-01  7.74269E-01  8.58846E-01  9.33055E-01  9.95059E-01  1.04247E+00  1.06559E+00
   1.07765E+00  1.07682E+00  1.05861E+00  1.02467E+00  9.72326E-01  9.13634E-01  8.51627E-01  7.84631E-01  7.21268E-01  6.67215E-01
   6.20952E-01  5.83326E-01  5.56401E-01  5.38604E-01  5.30997E-01  5.27164E-01  5.22309E-01  5.18477E-01  5.16451E-01  5.13032E-01
   5.10626E-01  5.08856E-01  5.04892E-01  4.98350E-01  4.87938E-01  4.74818E-01  4.61098E-01  4.46568E-01  4.34196E-01  4.25641E-01
   4.20043E-01  4.16699E-01  4.14247E-01  4.09952E-01  4.04901E-01  3.98950E-01  3.90138E-01  3.81385E-01  3.74810E-01  3.70170E-01
   3.69205E-01  3.71887E-01  3.78018E-01  3.85725E-01  3.93323E-01  3.99149E-01  4.04693E-01  4.09702E-01  4.16909E-01  4.24804E-01
   4.31210E-01  4.33888E-01  4.30119E-01  4.20935E-01  4.06128E-01  3.88188E-01  3.71643E-01  3.55836E-01  3.42760E-01  3.34723E-01
   3.31264E-01  3.34115E-01  3.47198E-01  3.64375E-01  3.81829E-01  4.00378E-01  4.26560E-01  4.50909E-01  4.79512E-01  5.12678E-01
   5.42703E-01  5.65924E-01  5.80950E-01  5.94162E-01  6.04792E-01  6.15738E-01  6.35993E-01  6.55883E-01  6.65920E-01  6.77423E-01
   7.21305E-01  7.89893E-01  8.96315E-01  1.03976E+00  1.19454E+00  1.32268E+00  1.40092E+00  1.43602E+00  1.41877E+00  1.34790E+00
   1.25807E+00  1.15913E+00  1.05103E+00  9.47774E-01  8.54567E-01  7.66193E-01  6.99674E-01  6.49720E-01  6.02456E-01  5.60153E-01
   5.26132E-01  4.98246E-01  4.76494E-01  4.59461E-01  4.45539E-01  4.34862E-01  4.27646E-01  4.22680E-01  4.19493E-01  4.18140E-01
   4.18463E-01  4.20721E-01  4.25169E-01  4.31361E-01  4.39195E-01  4.48656E-01  4.59677E-01  4.72494E-01  4.88110E-01  5.08643E-01
   5.36758E-01  5.74904E-01  6.22482E-01  6.69965E-01  7.18099E-01  7.95036E-01  8.92793E-01  1.03313E+00  1.23695E+00  1.47211E+00
