 LCModel (Version 6.3-0D) Copyright: S.W. Provencher.          Ref.: Magn. Reson. Med. 30:672-679 (1993).                
 S07_PRESS_35
 Data of: Dept of Radiology, The Johns Hopkins University School of Medicine
 17-March-2020  16:46
 32 lines in following concentration table = NCONC+1
    Conc.  %SD /Cr+PCr  Metabolite                                         
    0.000 999%   0.000 Asc                                                 
    3.801  14%   2.652 Asp                                                 
    5.637   5%   3.933 Cr                                                  
    0.799  34%   0.558 GABA                                                
    0.137 112% 9.5E-02 GPC                                                 
    2.492   5%   1.739 GSH                                                 
    3.695  11%   2.578 Gln                                                 
   15.949   4%  11.127 Glu                                                 
    9.167   3%   6.395 Ins                                                 
    0.641  32%   0.447 Lac                                                 
   16.832   2%  11.743 NAA                                                 
    1.320  15%   0.921 NAAG                                                
    2.049   8%   1.429 PCh                                                 
    5.830   5%   4.067 PCr                                                 
    2.806  21%   1.958 PE                                                  
    0.277  17%   0.193 Scyllo                                              
    2.523  15%   1.760 Tau                                                 
    0.000 999%   0.000 -CrCH2                                              
    2.186   2%   1.525 PCh+GPC                                             
   11.467   1%   8.000 Cr+PCr                                              
   18.152   1%  12.664 NAA+NAAG                                            
   19.644   4%  13.705 Glu+Gln                                             
   22.047  25%  15.381 Lip13a                                              
    0.000 999%   0.000 Lip13b                                              
    6.550  27%   4.570 Lip09                                               
    4.469  43%   3.118 MM09                                                
    4.285  18%   2.989 Lip20                                               
    2.346  94%   1.637 MM20                                                
    1.962  73%   1.369 MM12                                                
    5.521  33%   3.852 MM14                                                
    4.145  34%   2.892 MM17                                                
   6 lines in following misc. output table
  FWHM = 0.028 ppm    S/N =  60                                            
  Data shift = 0.024 ppm                                                   
  Ph:  -6 deg      -4.6 deg/ppm                                            
  alphaB,S = 3.2E-02,   4.2E-01                                            
   26 spline knots.   Ns = 8(1)                                            
   2 inflections.     1 extrema                                            
  884 points on ppm-axis = NY
      4.000000     3.996038     3.992076     3.988114     3.984152     3.980190     3.976228     3.972266     3.968304     3.964342
      3.960380     3.956418     3.952456     3.948493     3.944531     3.940569     3.936607     3.932645     3.928683     3.924721
      3.920759     3.916797     3.912835     3.908873     3.904911     3.900949     3.896987     3.893025     3.889063     3.885101
      3.881139     3.877177     3.873215     3.869253     3.865291     3.861329     3.857367     3.853405     3.849442     3.845480
      3.841518     3.837556     3.833594     3.829632     3.825670     3.821708     3.817746     3.813784     3.809822     3.805860
      3.801898     3.797936     3.793974     3.790012     3.786050     3.782088     3.778126     3.774164     3.770202     3.766240
      3.762278     3.758316     3.754354     3.750391     3.746429     3.742467     3.738505     3.734543     3.730581     3.726619
      3.722657     3.718695     3.714733     3.710771     3.706809     3.702847     3.698885     3.694923     3.690961     3.686999
      3.683037     3.679075     3.675113     3.671151     3.667189     3.663227     3.659265     3.655303     3.651340     3.647378
      3.643416     3.639454     3.635492     3.631530     3.627568     3.623606     3.619644     3.615682     3.611720     3.607758
      3.603796     3.599834     3.595872     3.591910     3.587948     3.583986     3.580024     3.576062     3.572100     3.568138
      3.564176     3.560214     3.556252     3.552289     3.548327     3.544365     3.540403     3.536441     3.532479     3.528517
      3.524555     3.520593     3.516631     3.512669     3.508707     3.504745     3.500783     3.496821     3.492859     3.488897
      3.484935     3.480973     3.477011     3.473049     3.469087     3.465125     3.461163     3.457201     3.453238     3.449276
      3.445314     3.441352     3.437390     3.433428     3.429466     3.425504     3.421542     3.417580     3.413618     3.409656
      3.405694     3.401732     3.397770     3.393808     3.389846     3.385884     3.381922     3.377960     3.373998     3.370036
      3.366074     3.362112     3.358150     3.354187     3.350225     3.346263     3.342301     3.338339     3.334377     3.330415
      3.326453     3.322491     3.318529     3.314567     3.310605     3.306643     3.302681     3.298719     3.294757     3.290795
      3.286833     3.282871     3.278909     3.274947     3.270985     3.267023     3.263061     3.259099     3.255136     3.251174
      3.247212     3.243250     3.239288     3.235326     3.231364     3.227402     3.223440     3.219478     3.215516     3.211554
      3.207592     3.203630     3.199668     3.195706     3.191744     3.187782     3.183820     3.179858     3.175896     3.171934
      3.167972     3.164010     3.160048     3.156085     3.152123     3.148161     3.144199     3.140237     3.136275     3.132313
      3.128351     3.124389     3.120427     3.116465     3.112503     3.108541     3.104579     3.100617     3.096655     3.092693
      3.088731     3.084769     3.080807     3.076845     3.072883     3.068921     3.064959     3.060997     3.057034     3.053072
      3.049110     3.045148     3.041186     3.037224     3.033262     3.029300     3.025338     3.021376     3.017414     3.013452
      3.009490     3.005528     3.001566     2.997604     2.993642     2.989680     2.985718     2.981756     2.977794     2.973832
      2.969870     2.965908     2.961946     2.957983     2.954021     2.950059     2.946097     2.942135     2.938173     2.934211
      2.930249     2.926287     2.922325     2.918363     2.914401     2.910439     2.906477     2.902515     2.898553     2.894591
      2.890629     2.886667     2.882705     2.878743     2.874781     2.870819     2.866857     2.862895     2.858932     2.854970
      2.851008     2.847046     2.843084     2.839122     2.835160     2.831198     2.827236     2.823274     2.819312     2.815350
      2.811388     2.807426     2.803464     2.799502     2.795540     2.791578     2.787616     2.783654     2.779692     2.775730
      2.771768     2.767806     2.763844     2.759881     2.755919     2.751957     2.747995     2.744033     2.740071     2.736109
      2.732147     2.728185     2.724223     2.720261     2.716299     2.712337     2.708375     2.704413     2.700451     2.696489
      2.692527     2.688565     2.684603     2.680641     2.676679     2.672717     2.668755     2.664793     2.660830     2.656868
      2.652906     2.648944     2.644982     2.641020     2.637058     2.633096     2.629134     2.625172     2.621210     2.617248
      2.613286     2.609324     2.605362     2.601400     2.597438     2.593476     2.589514     2.585552     2.581590     2.577628
      2.573666     2.569704     2.565742     2.561779     2.557817     2.553855     2.549893     2.545931     2.541969     2.538007
      2.534045     2.530083     2.526121     2.522159     2.518197     2.514235     2.510273     2.506311     2.502349     2.498387
      2.494425     2.490463     2.486501     2.482539     2.478577     2.474615     2.470653     2.466691     2.462729     2.458766
      2.454804     2.450842     2.446880     2.442918     2.438956     2.434994     2.431032     2.427070     2.423108     2.419146
      2.415184     2.411222     2.407260     2.403298     2.399336     2.395374     2.391412     2.387450     2.383488     2.379526
      2.375564     2.371602     2.367640     2.363678     2.359715     2.355753     2.351791     2.347829     2.343867     2.339905
      2.335943     2.331981     2.328019     2.324057     2.320095     2.316133     2.312171     2.308209     2.304247     2.300285
      2.296323     2.292361     2.288399     2.284437     2.280475     2.276513     2.272551     2.268589     2.264627     2.260664
      2.256702     2.252740     2.248778     2.244816     2.240854     2.236892     2.232930     2.228968     2.225006     2.221044
      2.217082     2.213120     2.209158     2.205196     2.201234     2.197272     2.193310     2.189348     2.185386     2.181424
      2.177462     2.173500     2.169538     2.165576     2.161613     2.157651     2.153689     2.149727     2.145765     2.141803
      2.137841     2.133879     2.129917     2.125955     2.121993     2.118031     2.114069     2.110107     2.106145     2.102183
      2.098221     2.094259     2.090297     2.086335     2.082373     2.078411     2.074449     2.070487     2.066525     2.062562
      2.058600     2.054638     2.050676     2.046714     2.042752     2.038790     2.034828     2.030866     2.026904     2.022942
      2.018980     2.015018     2.011056     2.007094     2.003132     1.999170     1.995208     1.991246     1.987284     1.983322
      1.979360     1.975398     1.971436     1.967474     1.963511     1.959549     1.955587     1.951625     1.947663     1.943701
      1.939739     1.935777     1.931815     1.927853     1.923891     1.919929     1.915967     1.912005     1.908043     1.904081
      1.900119     1.896157     1.892195     1.888233     1.884271     1.880309     1.876347     1.872385     1.868423     1.864460
      1.860498     1.856536     1.852574     1.848612     1.844650     1.840688     1.836726     1.832764     1.828802     1.824840
      1.820878     1.816916     1.812954     1.808992     1.805030     1.801068     1.797106     1.793144     1.789182     1.785220
      1.781258     1.777296     1.773334     1.769372     1.765409     1.761447     1.757485     1.753523     1.749561     1.745599
      1.741637     1.737675     1.733713     1.729751     1.725789     1.721827     1.717865     1.713903     1.709941     1.705979
      1.702017     1.698055     1.694093     1.690131     1.686169     1.682207     1.678245     1.674283     1.670321     1.666358
      1.662396     1.658434     1.654472     1.650510     1.646548     1.642586     1.638624     1.634662     1.630700     1.626738
      1.622776     1.618814     1.614852     1.610890     1.606928     1.602966     1.599004     1.595042     1.591080     1.587118
      1.583156     1.579194     1.575232     1.571270     1.567307     1.563345     1.559383     1.555421     1.551459     1.547497
      1.543535     1.539573     1.535611     1.531649     1.527687     1.523725     1.519763     1.515801     1.511839     1.507877
      1.503915     1.499953     1.495991     1.492029     1.488067     1.484105     1.480143     1.476181     1.472219     1.468256
      1.464294     1.460332     1.456370     1.452408     1.448446     1.444484     1.440522     1.436560     1.432598     1.428636
      1.424674     1.420712     1.416750     1.412788     1.408826     1.404864     1.400902     1.396940     1.392978     1.389016
      1.385054     1.381092     1.377130     1.373168     1.369205     1.365243     1.361281     1.357319     1.353357     1.349395
      1.345433     1.341471     1.337509     1.333547     1.329585     1.325623     1.321661     1.317699     1.313737     1.309775
      1.305813     1.301851     1.297889     1.293927     1.289965     1.286003     1.282041     1.278079     1.274117     1.270154
      1.266192     1.262230     1.258268     1.254306     1.250344     1.246382     1.242420     1.238458     1.234496     1.230534
      1.226572     1.222610     1.218648     1.214686     1.210724     1.206762     1.202800     1.198838     1.194876     1.190914
      1.186952     1.182990     1.179028     1.175066     1.171103     1.167141     1.163179     1.159217     1.155255     1.151293
      1.147331     1.143369     1.139407     1.135445     1.131483     1.127521     1.123559     1.119597     1.115635     1.111673
      1.107711     1.103749     1.099787     1.095825     1.091863     1.087901     1.083939     1.079977     1.076015     1.072052
      1.068090     1.064128     1.060166     1.056204     1.052242     1.048280     1.044318     1.040356     1.036394     1.032432
      1.028470     1.024508     1.020546     1.016584     1.012622     1.008660     1.004698     1.000736     0.996774     0.992812
      0.988850     0.984888     0.980926     0.976964     0.973001     0.969039     0.965077     0.961115     0.957153     0.953191
      0.949229     0.945267     0.941305     0.937343     0.933381     0.929419     0.925457     0.921495     0.917533     0.913571
      0.909609     0.905647     0.901685     0.897723     0.893761     0.889799     0.885837     0.881875     0.877913     0.873950
      0.869988     0.866026     0.862064     0.858102     0.854140     0.850178     0.846216     0.842254     0.838292     0.834330
      0.830368     0.826406     0.822444     0.818482     0.814520     0.810558     0.806596     0.802634     0.798672     0.794710
      0.790748     0.786786     0.782824     0.778862     0.774899     0.770937     0.766975     0.763013     0.759051     0.755089
      0.751127     0.747165     0.743203     0.739241     0.735279     0.731317     0.727355     0.723393     0.719431     0.715469
      0.711507     0.707545     0.703583     0.699621     0.695659     0.691697     0.687735     0.683773     0.679811     0.675848
      0.671886     0.667924     0.663962     0.660000     0.656038     0.652076     0.648114     0.644152     0.640190     0.636228
      0.632266     0.628304     0.624342     0.620380     0.616418     0.612456     0.608494     0.604532     0.600570     0.596608
      0.592646     0.588684     0.584722     0.580760     0.576797     0.572835     0.568873     0.564911     0.560949     0.556987
      0.553025     0.549063     0.545101     0.541139     0.537177     0.533215     0.529253     0.525291     0.521329     0.517367
      0.513405     0.509443     0.505481     0.501519
 NY phased data points follow
   4.25461E-01  4.05231E-01  4.52638E-01  4.40438E-01  4.63125E-01  4.26244E-01  4.18909E-01  4.10750E-01  4.39054E-01  4.39912E-01
   4.45691E-01  4.86338E-01  4.77736E-01  5.01946E-01  5.24603E-01  5.60731E-01  6.29370E-01  6.56778E-01  7.29995E-01  7.86188E-01
   8.47862E-01  9.84883E-01  1.05055E+00  1.14729E+00  1.23507E+00  1.28636E+00  1.33737E+00  1.40949E+00  1.43808E+00  1.41818E+00
   1.40038E+00  1.32256E+00  1.24266E+00  1.17068E+00  1.08594E+00  1.00203E+00  9.36288E-01  8.65917E-01  8.17763E-01  7.36787E-01
   7.22257E-01  6.60163E-01  6.77364E-01  6.27679E-01  6.46456E-01  6.15329E-01  6.34052E-01  6.53217E-01  6.73832E-01  6.13230E-01
   6.38650E-01  6.40105E-01  6.68227E-01  6.86194E-01  6.75618E-01  7.27457E-01  7.61771E-01  7.86520E-01  7.66459E-01  8.24301E-01
   7.85063E-01  7.51919E-01  8.10467E-01  8.55614E-01  8.66792E-01  9.18499E-01  9.63694E-01  9.82486E-01  9.90596E-01  1.03835E+00
   1.00583E+00  9.93166E-01  9.96798E-01  9.47505E-01  8.86421E-01  8.03534E-01  8.08467E-01  7.64962E-01  7.98388E-01  7.79716E-01
   7.44368E-01  7.60203E-01  7.93772E-01  7.71175E-01  7.58782E-01  7.41201E-01  7.29669E-01  7.28740E-01  7.03453E-01  6.50412E-01
   6.50367E-01  6.56559E-01  6.72798E-01  7.19511E-01  7.34206E-01  8.21815E-01  8.76384E-01  9.26697E-01  9.32403E-01  9.54670E-01
   8.94856E-01  8.51873E-01  7.75296E-01  6.86854E-01  6.49552E-01  5.88767E-01  5.51215E-01  5.44317E-01  4.91944E-01  5.16312E-01
   5.22178E-01  5.46546E-01  5.74442E-01  6.71965E-01  7.32371E-01  8.52686E-01  9.68996E-01  1.03491E+00  1.11313E+00  1.13140E+00
   1.10537E+00  1.08512E+00  1.04666E+00  1.00959E+00  9.81168E-01  8.86364E-01  7.85724E-01  6.97862E-01  6.62882E-01  6.09836E-01
   5.64923E-01  4.95942E-01  5.03742E-01  4.95872E-01  4.63408E-01  4.76701E-01  4.89700E-01  4.85815E-01  4.80944E-01  4.82506E-01
   5.16419E-01  5.06982E-01  4.95105E-01  4.88572E-01  5.09663E-01  4.83997E-01  5.05447E-01  4.92136E-01  5.16129E-01  4.40925E-01
   4.92465E-01  4.69583E-01  4.84032E-01  4.42309E-01  4.27494E-01  4.31308E-01  3.82469E-01  3.82408E-01  3.66709E-01  3.79274E-01
   3.71254E-01  3.76026E-01  3.54353E-01  3.87961E-01  3.95704E-01  3.61566E-01  4.08854E-01  3.86675E-01  4.07795E-01  4.47026E-01
   4.09815E-01  4.69353E-01  4.58528E-01  4.51865E-01  4.05586E-01  4.13675E-01  3.22549E-01  3.04563E-01  3.15209E-01  2.83507E-01
   3.00328E-01  3.42116E-01  3.16503E-01  3.41631E-01  3.75156E-01  3.64275E-01  4.53005E-01  4.28848E-01  4.89391E-01  5.30396E-01
   5.65469E-01  5.89671E-01  6.01796E-01  6.38215E-01  6.34147E-01  6.06730E-01  6.06712E-01  6.17746E-01  6.31377E-01  6.95301E-01
   7.10861E-01  7.83064E-01  8.90124E-01  1.08101E+00  1.21601E+00  1.36418E+00  1.45946E+00  1.51205E+00  1.46535E+00  1.37845E+00
   1.25398E+00  1.10838E+00  1.01870E+00  8.86466E-01  8.13226E-01  7.13208E-01  6.56303E-01  5.78258E-01  5.36674E-01  5.16568E-01
   5.16088E-01  4.86468E-01  4.34313E-01  4.48041E-01  4.23216E-01  4.33225E-01  4.22725E-01  3.94145E-01  3.94262E-01  4.06252E-01
   3.94373E-01  3.61673E-01  4.22932E-01  4.07031E-01  4.19925E-01  3.92264E-01  4.06229E-01  4.03097E-01  4.22141E-01  4.62492E-01
   4.74052E-01  4.71003E-01  4.98785E-01  5.65094E-01  5.99842E-01  7.06765E-01  8.27097E-01  9.82380E-01  1.17660E+00  1.43267E+00
   1.73224E+00  1.98875E+00  2.17109E+00  2.26438E+00  2.17433E+00  2.04307E+00  1.90448E+00  1.65633E+00  1.43654E+00  1.30664E+00
   1.09780E+00  9.94199E-01  8.65972E-01  8.12554E-01  7.21866E-01  6.43180E-01  6.19664E-01  5.56236E-01  5.00267E-01  5.00485E-01
   4.85290E-01  4.61945E-01  4.70290E-01  4.24265E-01  4.23792E-01  4.30525E-01  4.62585E-01  4.65261E-01  4.38941E-01  4.72175E-01
   4.37102E-01  4.31605E-01  3.93615E-01  4.08222E-01  3.98688E-01  3.74152E-01  3.93639E-01  3.68343E-01  3.46948E-01  3.76368E-01
   3.66418E-01  3.73273E-01  3.26596E-01  3.37772E-01  3.41376E-01  3.31332E-01  3.34986E-01  2.77410E-01  3.19411E-01  3.13537E-01
   2.95911E-01  2.91056E-01  2.81524E-01  2.85030E-01  2.29435E-01  2.95698E-01  2.88392E-01  2.84149E-01  3.00328E-01  3.15048E-01
   3.19724E-01  3.50260E-01  3.77551E-01  4.02199E-01  4.24648E-01  4.46450E-01  3.98779E-01  3.32903E-01  3.23519E-01  2.89152E-01
   2.91179E-01  2.60308E-01  3.31746E-01  3.54446E-01  3.54902E-01  3.92579E-01  3.86640E-01  3.79609E-01  3.63850E-01  3.30513E-01
   3.23906E-01  2.82101E-01  2.20917E-01  2.48608E-01  2.01007E-01  2.12423E-01  1.94862E-01  1.73343E-01  2.02077E-01  2.20383E-01
   2.04720E-01  2.24396E-01  1.68912E-01  2.49576E-01  3.02810E-01  3.02620E-01  3.41139E-01  3.40377E-01  4.03870E-01  3.95309E-01
   3.83213E-01  3.86264E-01  3.85677E-01  3.53502E-01  4.12688E-01  3.68886E-01  4.44301E-01  4.59317E-01  5.11671E-01  5.09315E-01
   5.36846E-01  5.77630E-01  5.25456E-01  4.93452E-01  5.28699E-01  5.16450E-01  5.13709E-01  5.08982E-01  4.33648E-01  4.37008E-01
   4.01602E-01  3.97191E-01  3.46020E-01  3.35189E-01  3.46711E-01  3.62156E-01  3.15945E-01  3.41692E-01  3.15229E-01  3.31756E-01
   2.85355E-01  3.24796E-01  3.81712E-01  3.89082E-01  3.80172E-01  4.11916E-01  4.46788E-01  4.68633E-01  5.06675E-01  4.83557E-01
   5.07895E-01  5.77043E-01  5.51479E-01  5.96604E-01  5.52245E-01  5.98108E-01  6.33793E-01  6.52239E-01  6.94381E-01  7.29455E-01
   7.35116E-01  7.71268E-01  7.69231E-01  7.40656E-01  7.26588E-01  7.04109E-01  6.58508E-01  5.97694E-01  5.79134E-01  5.36863E-01
   5.08389E-01  4.69989E-01  4.70111E-01  4.61589E-01  4.40732E-01  4.73300E-01  5.00934E-01  5.66616E-01  6.75590E-01  8.04721E-01
   9.07978E-01  9.54603E-01  1.02380E+00  1.08396E+00  1.03897E+00  1.05914E+00  9.61470E-01  8.85158E-01  8.20206E-01  7.51276E-01
   6.81547E-01  6.15053E-01  5.52395E-01  5.42885E-01  5.32715E-01  6.01609E-01  6.32375E-01  7.03570E-01  7.08449E-01  7.57274E-01
   8.05624E-01  8.21253E-01  8.07662E-01  8.03845E-01  7.82365E-01  7.26232E-01  7.40648E-01  6.86625E-01  6.91568E-01  6.66272E-01
   6.84135E-01  6.08970E-01  6.21984E-01  6.24435E-01  5.73273E-01  6.06441E-01  5.82693E-01  5.95486E-01  5.96813E-01  5.83667E-01
   6.24102E-01  5.92947E-01  5.94741E-01  5.89990E-01  5.95325E-01  6.15290E-01  6.41924E-01  6.15502E-01  6.31210E-01  6.11481E-01
   6.28878E-01  6.08512E-01  5.62618E-01  5.59158E-01  5.52678E-01  5.51475E-01  5.58389E-01  5.95253E-01  6.10696E-01  6.50962E-01
   7.09431E-01  7.33459E-01  7.86950E-01  7.90626E-01  8.16334E-01  8.24781E-01  8.61893E-01  8.33991E-01  8.49022E-01  8.55399E-01
   8.64972E-01  8.77335E-01  8.97501E-01  9.16266E-01  9.54560E-01  9.63799E-01  1.01123E+00  1.10915E+00  1.12629E+00  1.21763E+00
   1.29622E+00  1.33561E+00  1.42380E+00  1.51935E+00  1.71835E+00  1.93165E+00  2.27105E+00  2.67161E+00  3.09918E+00  3.38851E+00
   3.50034E+00  3.42537E+00  3.22918E+00  2.93444E+00  2.54514E+00  2.16983E+00  1.82016E+00  1.53799E+00  1.32157E+00  1.12754E+00
   1.01753E+00  8.90589E-01  8.29822E-01  7.53215E-01  6.99327E-01  6.54419E-01  6.14082E-01  5.67375E-01  5.36241E-01  4.86652E-01
   4.65783E-01  4.56871E-01  4.71314E-01  4.57493E-01  4.58289E-01  4.61202E-01  4.00847E-01  4.60860E-01  4.20009E-01  3.99412E-01
   4.07982E-01  3.98920E-01  3.92248E-01  4.19257E-01  4.01509E-01  3.76897E-01  4.18888E-01  3.74018E-01  3.64603E-01  4.18625E-01
   3.87979E-01  3.52429E-01  3.64571E-01  3.42879E-01  3.67350E-01  3.85756E-01  3.28268E-01  3.57540E-01  3.27266E-01  3.50675E-01
   3.40230E-01  3.23717E-01  3.32317E-01  2.98977E-01  3.59679E-01  3.21176E-01  3.49153E-01  3.51044E-01  3.04367E-01  3.00204E-01
   3.11634E-01  3.09426E-01  3.43302E-01  3.34135E-01  3.25095E-01  3.24018E-01  3.29212E-01  3.28521E-01  2.95907E-01  3.15647E-01
   2.95247E-01  3.32985E-01  3.44629E-01  2.94307E-01  3.39636E-01  3.21604E-01  3.10137E-01  3.07958E-01  3.23307E-01  2.95893E-01
   3.46243E-01  3.33924E-01  3.11163E-01  3.54268E-01  3.19729E-01  3.37935E-01  3.60405E-01  3.75293E-01  3.39412E-01  3.51466E-01
   3.29818E-01  3.51962E-01  3.73327E-01  3.69096E-01  3.21412E-01  3.68873E-01  3.76691E-01  3.45570E-01  3.71840E-01  3.58098E-01
   3.49444E-01  4.00600E-01  3.77697E-01  3.82246E-01  3.48222E-01  3.48314E-01  3.73378E-01  3.39831E-01  3.57977E-01  3.69449E-01
   3.39423E-01  3.61857E-01  3.25349E-01  3.16509E-01  3.19330E-01  3.31887E-01  3.38972E-01  3.29954E-01  3.30385E-01  3.15720E-01
   3.12318E-01  3.33840E-01  3.39832E-01  2.95231E-01  3.39812E-01  3.36774E-01  3.39450E-01  3.29483E-01  3.18087E-01  3.33595E-01
   3.52162E-01  3.64656E-01  3.48119E-01  3.21942E-01  3.25715E-01  3.44084E-01  3.72562E-01  3.36630E-01  3.52484E-01  3.84740E-01
   3.82883E-01  3.64925E-01  3.87311E-01  4.02018E-01  4.02991E-01  3.96577E-01  4.45795E-01  4.49778E-01  4.44082E-01  4.41696E-01
   4.60750E-01  4.54747E-01  4.36440E-01  4.27880E-01  4.31472E-01  4.23961E-01  4.22395E-01  4.21505E-01  4.67398E-01  4.42026E-01
   4.53909E-01  4.69724E-01  4.98938E-01  4.90924E-01  4.84337E-01  5.05844E-01  5.11867E-01  5.29884E-01  4.88033E-01  4.55362E-01
   4.49092E-01  4.41933E-01  3.99624E-01  4.21025E-01  4.26449E-01  4.10375E-01  4.06593E-01  3.70453E-01  4.13477E-01  4.05945E-01
   4.04447E-01  4.28638E-01  4.21685E-01  4.23839E-01  4.17790E-01  3.94716E-01  3.84726E-01  3.83384E-01  3.75062E-01  4.04268E-01
   3.93543E-01  3.91627E-01  3.67084E-01  3.80103E-01  3.89627E-01  3.78954E-01  3.87297E-01  3.66342E-01  3.42207E-01  3.28696E-01
   3.36065E-01  3.23736E-01  3.28421E-01  3.45069E-01  3.45963E-01  3.23134E-01  3.16720E-01  2.99599E-01  3.16063E-01  3.32362E-01
   2.89525E-01  3.16581E-01  3.26521E-01  2.93754E-01  3.05538E-01  3.19719E-01  3.16436E-01  3.01230E-01  2.75214E-01  2.91339E-01
   2.70146E-01  2.63879E-01  2.85996E-01  2.71638E-01  2.63140E-01  2.16920E-01  2.15477E-01  2.46657E-01  2.31813E-01  2.64555E-01
   2.28359E-01  2.16481E-01  2.59052E-01  2.50790E-01  2.20995E-01  2.18852E-01  2.37302E-01  2.25736E-01  2.36229E-01  2.57794E-01
   2.28368E-01  2.34826E-01  2.26876E-01  2.38750E-01  2.42917E-01  2.56197E-01  2.76474E-01  2.47041E-01  2.84284E-01  3.20272E-01
   3.08815E-01  2.81026E-01  2.89682E-01  3.09754E-01  3.08137E-01  3.18462E-01  3.48555E-01  3.43950E-01  3.60442E-01  3.46684E-01
   3.61904E-01  3.72293E-01  4.24365E-01  4.04943E-01  4.41549E-01  4.08290E-01  4.18945E-01  4.06806E-01  4.65758E-01  4.38915E-01
   4.49171E-01  4.34250E-01  4.37209E-01  4.76844E-01  4.62685E-01  4.53121E-01  4.88793E-01  4.74422E-01  4.81484E-01  4.65294E-01
   5.14784E-01  4.85034E-01  4.61157E-01  4.82256E-01  5.14538E-01  4.76437E-01  4.61142E-01  4.73159E-01  4.54457E-01  4.78349E-01
   4.24465E-01  4.60409E-01  3.91427E-01  4.45231E-01  3.99918E-01  3.96087E-01  3.83175E-01  3.93999E-01  3.78161E-01  3.45885E-01
   3.35767E-01  3.23825E-01  3.27603E-01  3.12839E-01  2.87576E-01  3.01285E-01  2.86424E-01  2.32901E-01  2.43116E-01  2.51869E-01
   2.24472E-01  2.37485E-01  2.40847E-01  1.94487E-01  2.01818E-01  1.64029E-01  2.04912E-01  2.15651E-01  1.77284E-01  1.77267E-01
   1.68772E-01  1.79495E-01  1.46081E-01  1.80500E-01  1.84618E-01  1.54651E-01  1.75121E-01  1.40485E-01  1.62836E-01  1.12171E-01
   1.53107E-01  1.33095E-01  1.49728E-01  1.42896E-01  1.59431E-01  1.36963E-01  1.25848E-01  1.42703E-01  1.26108E-01  1.31011E-01
   1.22203E-01  1.30744E-01  1.19546E-01  1.17935E-01  1.52931E-01  1.47847E-01  1.59049E-01  1.28064E-01  1.31770E-01  1.33786E-01
   1.57159E-01  1.50928E-01  1.22893E-01  1.57305E-01  1.21516E-01  1.03005E-01  1.52380E-01  1.43208E-01  1.50409E-01  1.66202E-01
   1.25290E-01  1.02305E-01  1.27799E-01  1.15580E-01  1.42024E-01  1.06967E-01  1.68729E-01  1.13817E-01  1.19542E-01  1.47139E-01
   1.40289E-01  1.06520E-01  1.21407E-01  1.17864E-01
 NY points of the fit to the data follow
   4.82209E-01  4.68404E-01  4.56941E-01  4.47355E-01  4.41241E-01  4.38332E-01  4.36890E-01  4.37087E-01  4.37447E-01  4.37870E-01
   4.40028E-01  4.46160E-01  4.58107E-01  4.77122E-01  5.03566E-01  5.37257E-01  5.77635E-01  6.25333E-01  6.84177E-01  7.58294E-01
   8.48822E-01  9.63015E-01  1.08773E+00  1.20027E+00  1.28111E+00  1.33123E+00  1.36831E+00  1.40171E+00  1.42925E+00  1.44119E+00
   1.42174E+00  1.37382E+00  1.30173E+00  1.21203E+00  1.11397E+00  1.01667E+00  9.26468E-01  8.50800E-01  7.88159E-01  7.34891E-01
   6.92115E-01  6.57732E-01  6.31255E-01  6.12799E-01  6.02892E-01  6.01588E-01  6.06508E-01  6.14917E-01  6.24535E-01  6.34259E-01
   6.43444E-01  6.51947E-01  6.60985E-01  6.71956E-01  6.85295E-01  7.00189E-01  7.15547E-01  7.29113E-01  7.40654E-01  7.52548E-01
   7.69381E-01  7.98041E-01  8.36809E-01  8.78202E-01  9.13903E-01  9.40442E-01  9.63626E-01  9.84300E-01  9.99404E-01  1.00733E+00
   1.00690E+00  9.99309E-01  9.82778E-01  9.54332E-01  9.19302E-01  8.83868E-01  8.50605E-01  8.19907E-01  7.90682E-01  7.65344E-01
   7.48748E-01  7.42142E-01  7.43405E-01  7.47267E-01  7.49830E-01  7.48507E-01  7.41210E-01  7.27725E-01  7.09243E-01  6.90710E-01
   6.75789E-01  6.68373E-01  6.73786E-01  6.96242E-01  7.39247E-01  7.97242E-01  8.59407E-01  9.09479E-01  9.34694E-01  9.27250E-01
   8.89629E-01  8.29364E-01  7.57657E-01  6.84203E-01  6.18229E-01  5.65227E-01  5.28707E-01  5.05911E-01  4.95452E-01  4.95667E-01
   5.09825E-01  5.40513E-01  5.92354E-01  6.68538E-01  7.62738E-01  8.60806E-01  9.50356E-01  1.02071E+00  1.07017E+00  1.09441E+00
   1.09604E+00  1.08447E+00  1.05834E+00  1.01894E+00  9.62755E-01  8.93708E-01  8.24330E-01  7.53378E-01  6.87248E-01  6.29953E-01
   5.82814E-01  5.51182E-01  5.30571E-01  5.21042E-01  5.19173E-01  5.19905E-01  5.20927E-01  5.21479E-01  5.21521E-01  5.19838E-01
   5.15984E-01  5.12225E-01  5.07588E-01  5.01228E-01  4.91585E-01  4.78708E-01  4.65557E-01  4.52559E-01  4.41523E-01  4.35122E-01
   4.32791E-01  4.33247E-01  4.32146E-01  4.27042E-01  4.18474E-01  4.07275E-01  3.94813E-01  3.82587E-01  3.72780E-01  3.67242E-01
   3.67654E-01  3.73352E-01  3.83004E-01  3.94220E-01  4.04468E-01  4.12377E-01  4.17893E-01  4.22608E-01  4.26998E-01  4.33100E-01
   4.38222E-01  4.39601E-01  4.33998E-01  4.20547E-01  4.01629E-01  3.78980E-01  3.56704E-01  3.37611E-01  3.22681E-01  3.15730E-01
   3.15421E-01  3.23015E-01  3.38506E-01  3.59355E-01  3.84328E-01  4.10586E-01  4.36226E-01  4.62108E-01  4.87599E-01  5.19246E-01
   5.51523E-01  5.79361E-01  5.96653E-01  6.03259E-01  6.07836E-01  6.11930E-01  6.17285E-01  6.26829E-01  6.40810E-01  6.68753E-01
   7.14374E-01  7.90522E-01  9.01616E-01  1.05194E+00  1.22371E+00  1.37629E+00  1.47330E+00  1.49830E+00  1.46363E+00  1.38052E+00
   1.26073E+00  1.12744E+00  9.95453E-01  8.82757E-01  7.91076E-01  7.12891E-01  6.50220E-01  5.99152E-01  5.56215E-01  5.21423E-01
   4.92167E-01  4.67608E-01  4.47799E-01  4.31744E-01  4.18877E-01  4.08891E-01  4.01330E-01  3.96039E-01  3.92830E-01  3.91607E-01
   3.92173E-01  3.94361E-01  3.98219E-01  4.03620E-01  4.10397E-01  4.18351E-01  4.27091E-01  4.36636E-01  4.47355E-01  4.60436E-01
   4.77655E-01  5.00989E-01  5.33025E-01  5.76733E-01  6.35154E-01  7.15389E-01  8.29911E-01  9.83521E-01  1.19155E+00  1.44725E+00
