 LCModel (Version 6.3-0D) Copyright: S.W. Provencher.          Ref.: Magn. Reson. Med. 30:672-679 (1993).                
 S03_PRESS_35
 Data of: Dept of Radiology, The Johns Hopkins University School of Medicine
 17-March-2020  16:44
 32 lines in following concentration table = NCONC+1
    Conc.  %SD /Cr+PCr  Metabolite                                         
    0.000 999%   0.000 Asc                                                 
    5.701  10%   3.722 Asp                                                 
    5.086   6%   3.320 Cr                                                  
    0.617  47%   0.403 GABA                                                
    0.575  27%   0.375 GPC                                                 
    2.998   5%   1.957 GSH                                                 
    3.736  11%   2.439 Gln                                                 
   17.700   4%  11.555 Glu                                                 
    9.778   3%   6.384 Ins                                                 
    0.485  46%   0.317 Lac                                                 
   18.477   2%  12.063 NAA                                                 
    1.374  15%   0.897 NAAG                                                
    1.686  10%   1.101 PCh                                                 
    7.168   5%   4.680 PCr                                                 
    2.833  23%   1.850 PE                                                  
    0.150  33% 9.8E-02 Scyllo                                              
    2.532  16%   1.653 Tau                                                 
    0.000 999%   0.000 -CrCH2                                              
    2.261   2%   1.476 PCh+GPC                                             
   12.254   1%   8.000 Cr+PCr                                              
   19.852   1%  12.960 NAA+NAAG                                            
   21.435   4%  13.994 Glu+Gln                                             
   20.623  26%  13.464 Lip13a                                              
    0.000 999%   0.000 Lip13b                                              
    5.891  28%   3.846 Lip09                                               
    4.312  44%   2.815 MM09                                                
    3.908  19%   2.551 Lip20                                               
    5.257  42%   3.432 MM20                                                
    1.756  74%   1.146 MM12                                                
    5.842  31%   3.814 MM14                                                
    3.576  37%   2.335 MM17                                                
   6 lines in following misc. output table
  FWHM = 0.028 ppm    S/N =  61                                            
  Data shift = 0.028 ppm                                                   
  Ph:   0 deg      -1.1 deg/ppm                                            
  alphaB,S = 3.6E-02,   4.0E-01                                            
   26 spline knots.   Ns = 8(1)                                            
   2 inflections.     1 extrema                                            
  884 points on ppm-axis = NY
      4.000000     3.996038     3.992076     3.988114     3.984152     3.980190     3.976228     3.972266     3.968304     3.964342
      3.960380     3.956418     3.952456     3.948493     3.944531     3.940569     3.936607     3.932645     3.928683     3.924721
      3.920759     3.916797     3.912835     3.908873     3.904911     3.900949     3.896987     3.893025     3.889063     3.885101
      3.881139     3.877177     3.873215     3.869253     3.865291     3.861329     3.857367     3.853405     3.849442     3.845480
      3.841518     3.837556     3.833594     3.829632     3.825670     3.821708     3.817746     3.813784     3.809822     3.805860
      3.801898     3.797936     3.793974     3.790012     3.786050     3.782088     3.778126     3.774164     3.770202     3.766240
      3.762278     3.758316     3.754354     3.750391     3.746429     3.742467     3.738505     3.734543     3.730581     3.726619
      3.722657     3.718695     3.714733     3.710771     3.706809     3.702847     3.698885     3.694923     3.690961     3.686999
      3.683037     3.679075     3.675113     3.671151     3.667189     3.663227     3.659265     3.655303     3.651340     3.647378
      3.643416     3.639454     3.635492     3.631530     3.627568     3.623606     3.619644     3.615682     3.611720     3.607758
      3.603796     3.599834     3.595872     3.591910     3.587948     3.583986     3.580024     3.576062     3.572100     3.568138
      3.564176     3.560214     3.556252     3.552289     3.548327     3.544365     3.540403     3.536441     3.532479     3.528517
      3.524555     3.520593     3.516631     3.512669     3.508707     3.504745     3.500783     3.496821     3.492859     3.488897
      3.484935     3.480973     3.477011     3.473049     3.469087     3.465125     3.461163     3.457201     3.453238     3.449276
      3.445314     3.441352     3.437390     3.433428     3.429466     3.425504     3.421542     3.417580     3.413618     3.409656
      3.405694     3.401732     3.397770     3.393808     3.389846     3.385884     3.381922     3.377960     3.373998     3.370036
      3.366074     3.362112     3.358150     3.354187     3.350225     3.346263     3.342301     3.338339     3.334377     3.330415
      3.326453     3.322491     3.318529     3.314567     3.310605     3.306643     3.302681     3.298719     3.294757     3.290795
      3.286833     3.282871     3.278909     3.274947     3.270985     3.267023     3.263061     3.259099     3.255136     3.251174
      3.247212     3.243250     3.239288     3.235326     3.231364     3.227402     3.223440     3.219478     3.215516     3.211554
      3.207592     3.203630     3.199668     3.195706     3.191744     3.187782     3.183820     3.179858     3.175896     3.171934
      3.167972     3.164010     3.160048     3.156085     3.152123     3.148161     3.144199     3.140237     3.136275     3.132313
      3.128351     3.124389     3.120427     3.116465     3.112503     3.108541     3.104579     3.100617     3.096655     3.092693
      3.088731     3.084769     3.080807     3.076845     3.072883     3.068921     3.064959     3.060997     3.057034     3.053072
      3.049110     3.045148     3.041186     3.037224     3.033262     3.029300     3.025338     3.021376     3.017414     3.013452
      3.009490     3.005528     3.001566     2.997604     2.993642     2.989680     2.985718     2.981756     2.977794     2.973832
      2.969870     2.965908     2.961946     2.957983     2.954021     2.950059     2.946097     2.942135     2.938173     2.934211
      2.930249     2.926287     2.922325     2.918363     2.914401     2.910439     2.906477     2.902515     2.898553     2.894591
      2.890629     2.886667     2.882705     2.878743     2.874781     2.870819     2.866857     2.862895     2.858932     2.854970
      2.851008     2.847046     2.843084     2.839122     2.835160     2.831198     2.827236     2.823274     2.819312     2.815350
      2.811388     2.807426     2.803464     2.799502     2.795540     2.791578     2.787616     2.783654     2.779692     2.775730
      2.771768     2.767806     2.763844     2.759881     2.755919     2.751957     2.747995     2.744033     2.740071     2.736109
      2.732147     2.728185     2.724223     2.720261     2.716299     2.712337     2.708375     2.704413     2.700451     2.696489
      2.692527     2.688565     2.684603     2.680641     2.676679     2.672717     2.668755     2.664793     2.660830     2.656868
      2.652906     2.648944     2.644982     2.641020     2.637058     2.633096     2.629134     2.625172     2.621210     2.617248
      2.613286     2.609324     2.605362     2.601400     2.597438     2.593476     2.589514     2.585552     2.581590     2.577628
      2.573666     2.569704     2.565742     2.561779     2.557817     2.553855     2.549893     2.545931     2.541969     2.538007
      2.534045     2.530083     2.526121     2.522159     2.518197     2.514235     2.510273     2.506311     2.502349     2.498387
      2.494425     2.490463     2.486501     2.482539     2.478577     2.474615     2.470653     2.466691     2.462729     2.458766
      2.454804     2.450842     2.446880     2.442918     2.438956     2.434994     2.431032     2.427070     2.423108     2.419146
      2.415184     2.411222     2.407260     2.403298     2.399336     2.395374     2.391412     2.387450     2.383488     2.379526
      2.375564     2.371602     2.367640     2.363678     2.359715     2.355753     2.351791     2.347829     2.343867     2.339905
      2.335943     2.331981     2.328019     2.324057     2.320095     2.316133     2.312171     2.308209     2.304247     2.300285
      2.296323     2.292361     2.288399     2.284437     2.280475     2.276513     2.272551     2.268589     2.264627     2.260664
      2.256702     2.252740     2.248778     2.244816     2.240854     2.236892     2.232930     2.228968     2.225006     2.221044
      2.217082     2.213120     2.209158     2.205196     2.201234     2.197272     2.193310     2.189348     2.185386     2.181424
      2.177462     2.173500     2.169538     2.165576     2.161613     2.157651     2.153689     2.149727     2.145765     2.141803
      2.137841     2.133879     2.129917     2.125955     2.121993     2.118031     2.114069     2.110107     2.106145     2.102183
      2.098221     2.094259     2.090297     2.086335     2.082373     2.078411     2.074449     2.070487     2.066525     2.062562
      2.058600     2.054638     2.050676     2.046714     2.042752     2.038790     2.034828     2.030866     2.026904     2.022942
      2.018980     2.015018     2.011056     2.007094     2.003132     1.999170     1.995208     1.991246     1.987284     1.983322
      1.979360     1.975398     1.971436     1.967474     1.963511     1.959549     1.955587     1.951625     1.947663     1.943701
      1.939739     1.935777     1.931815     1.927853     1.923891     1.919929     1.915967     1.912005     1.908043     1.904081
      1.900119     1.896157     1.892195     1.888233     1.884271     1.880309     1.876347     1.872385     1.868423     1.864460
      1.860498     1.856536     1.852574     1.848612     1.844650     1.840688     1.836726     1.832764     1.828802     1.824840
      1.820878     1.816916     1.812954     1.808992     1.805030     1.801068     1.797106     1.793144     1.789182     1.785220
      1.781258     1.777296     1.773334     1.769372     1.765409     1.761447     1.757485     1.753523     1.749561     1.745599
      1.741637     1.737675     1.733713     1.729751     1.725789     1.721827     1.717865     1.713903     1.709941     1.705979
      1.702017     1.698055     1.694093     1.690131     1.686169     1.682207     1.678245     1.674283     1.670321     1.666358
      1.662396     1.658434     1.654472     1.650510     1.646548     1.642586     1.638624     1.634662     1.630700     1.626738
      1.622776     1.618814     1.614852     1.610890     1.606928     1.602966     1.599004     1.595042     1.591080     1.587118
      1.583156     1.579194     1.575232     1.571270     1.567307     1.563345     1.559383     1.555421     1.551459     1.547497
      1.543535     1.539573     1.535611     1.531649     1.527687     1.523725     1.519763     1.515801     1.511839     1.507877
      1.503915     1.499953     1.495991     1.492029     1.488067     1.484105     1.480143     1.476181     1.472219     1.468256
      1.464294     1.460332     1.456370     1.452408     1.448446     1.444484     1.440522     1.436560     1.432598     1.428636
      1.424674     1.420712     1.416750     1.412788     1.408826     1.404864     1.400902     1.396940     1.392978     1.389016
      1.385054     1.381092     1.377130     1.373168     1.369205     1.365243     1.361281     1.357319     1.353357     1.349395
      1.345433     1.341471     1.337509     1.333547     1.329585     1.325623     1.321661     1.317699     1.313737     1.309775
      1.305813     1.301851     1.297889     1.293927     1.289965     1.286003     1.282041     1.278079     1.274117     1.270154
      1.266192     1.262230     1.258268     1.254306     1.250344     1.246382     1.242420     1.238458     1.234496     1.230534
      1.226572     1.222610     1.218648     1.214686     1.210724     1.206762     1.202800     1.198838     1.194876     1.190914
      1.186952     1.182990     1.179028     1.175066     1.171103     1.167141     1.163179     1.159217     1.155255     1.151293
      1.147331     1.143369     1.139407     1.135445     1.131483     1.127521     1.123559     1.119597     1.115635     1.111673
      1.107711     1.103749     1.099787     1.095825     1.091863     1.087901     1.083939     1.079977     1.076015     1.072052
      1.068090     1.064128     1.060166     1.056204     1.052242     1.048280     1.044318     1.040356     1.036394     1.032432
      1.028470     1.024508     1.020546     1.016584     1.012622     1.008660     1.004698     1.000736     0.996774     0.992812
      0.988850     0.984888     0.980926     0.976964     0.973001     0.969039     0.965077     0.961115     0.957153     0.953191
      0.949229     0.945267     0.941305     0.937343     0.933381     0.929419     0.925457     0.921495     0.917533     0.913571
      0.909609     0.905647     0.901685     0.897723     0.893761     0.889799     0.885837     0.881875     0.877913     0.873950
      0.869988     0.866026     0.862064     0.858102     0.854140     0.850178     0.846216     0.842254     0.838292     0.834330
      0.830368     0.826406     0.822444     0.818482     0.814520     0.810558     0.806596     0.802634     0.798672     0.794710
      0.790748     0.786786     0.782824     0.778862     0.774899     0.770937     0.766975     0.763013     0.759051     0.755089
      0.751127     0.747165     0.743203     0.739241     0.735279     0.731317     0.727355     0.723393     0.719431     0.715469
      0.711507     0.707545     0.703583     0.699621     0.695659     0.691697     0.687735     0.683773     0.679811     0.675848
      0.671886     0.667924     0.663962     0.660000     0.656038     0.652076     0.648114     0.644152     0.640190     0.636228
      0.632266     0.628304     0.624342     0.620380     0.616418     0.612456     0.608494     0.604532     0.600570     0.596608
      0.592646     0.588684     0.584722     0.580760     0.576797     0.572835     0.568873     0.564911     0.560949     0.556987
      0.553025     0.549063     0.545101     0.541139     0.537177     0.533215     0.529253     0.525291     0.521329     0.517367
      0.513405     0.509443     0.505481     0.501519
 NY phased data points follow
   4.47935E-01  4.12436E-01  4.16338E-01  4.44333E-01  4.67519E-01  4.52136E-01  4.73103E-01  4.64121E-01  4.57116E-01  4.82156E-01
   4.71866E-01  5.33798E-01  5.17191E-01  5.59369E-01  6.16867E-01  7.22388E-01  7.37270E-01  7.97229E-01  8.58529E-01  9.90559E-01
   1.09165E+00  1.21925E+00  1.28863E+00  1.42521E+00  1.46842E+00  1.53180E+00  1.55533E+00  1.53983E+00  1.51630E+00  1.47225E+00
   1.40630E+00  1.29425E+00  1.20883E+00  1.04990E+00  9.50960E-01  8.98272E-01  8.46594E-01  8.05249E-01  7.30684E-01  6.96558E-01
   6.64989E-01  6.77801E-01  6.62044E-01  6.18613E-01  6.11054E-01  6.60182E-01  6.47345E-01  6.57986E-01  7.09608E-01  7.25237E-01
   7.42115E-01  6.73563E-01  7.42855E-01  7.44960E-01  7.48790E-01  8.05752E-01  7.79259E-01  8.51127E-01  8.50929E-01  8.46316E-01
   8.32702E-01  8.40584E-01  8.87744E-01  9.12116E-01  9.76081E-01  1.02601E+00  1.06331E+00  1.08623E+00  1.08665E+00  1.08061E+00
   1.00966E+00  9.86581E-01  9.24066E-01  8.64673E-01  8.35843E-01  7.79946E-01  7.68574E-01  7.89649E-01  7.78666E-01  7.82167E-01
   7.62914E-01  7.85777E-01  7.59933E-01  7.88957E-01  7.16910E-01  7.63001E-01  6.88135E-01  6.96198E-01  6.64951E-01  7.02093E-01
   7.17271E-01  7.21649E-01  7.78878E-01  8.08840E-01  8.86859E-01  8.92982E-01  9.90455E-01  9.76574E-01  9.69235E-01  9.54195E-01
   8.83050E-01  7.74991E-01  6.85859E-01  6.19337E-01  5.65834E-01  5.46364E-01  5.55242E-01  5.12378E-01  5.43548E-01  5.55235E-01
   5.99978E-01  6.45502E-01  7.39459E-01  8.24355E-01  9.29361E-01  1.01991E+00  1.10091E+00  1.13690E+00  1.17605E+00  1.16215E+00
   1.09400E+00  1.05875E+00  9.69709E-01  9.32221E-01  8.33098E-01  7.85007E-01  7.26247E-01  6.64630E-01  5.70319E-01  5.33229E-01
   5.21665E-01  4.78306E-01  4.83629E-01  4.77186E-01  4.80648E-01  5.08215E-01  5.00114E-01  5.48933E-01  5.00364E-01  5.12162E-01
   5.43005E-01  4.70318E-01  5.24976E-01  4.96939E-01  4.71794E-01  5.21594E-01  4.87243E-01  4.82562E-01  4.69960E-01  4.18729E-01
   4.56962E-01  4.11441E-01  4.54238E-01  4.29649E-01  4.10563E-01  4.23101E-01  3.76928E-01  3.80599E-01  3.54802E-01  3.78391E-01
   3.79364E-01  3.62321E-01  3.82098E-01  3.84445E-01  3.82299E-01  4.15142E-01  3.84620E-01  4.37233E-01  4.03127E-01  4.22348E-01
   4.03674E-01  4.32147E-01  4.14226E-01  3.59180E-01  3.38541E-01  3.31179E-01  3.14749E-01  2.93945E-01  2.92206E-01  2.85808E-01
   3.35105E-01  3.21405E-01  3.77930E-01  3.97015E-01  4.21352E-01  4.53359E-01  5.03673E-01  4.92070E-01  5.35179E-01  6.15745E-01
   6.23719E-01  6.40664E-01  6.39739E-01  6.64076E-01  6.74657E-01  6.69345E-01  7.03390E-01  7.29980E-01  7.88616E-01  8.41741E-01
   9.22167E-01  1.06086E+00  1.19472E+00  1.32343E+00  1.41910E+00  1.55354E+00  1.57631E+00  1.49246E+00  1.38490E+00  1.22734E+00
   1.08289E+00  9.33385E-01  8.52798E-01  7.54276E-01  7.30989E-01  6.66318E-01  6.19394E-01  5.92265E-01  5.52292E-01  5.04349E-01
   4.35939E-01  4.59700E-01  4.38257E-01  4.50560E-01  4.40200E-01  4.29456E-01  4.27364E-01  4.03762E-01  4.05209E-01  4.19244E-01
   3.87120E-01  4.08238E-01  4.13610E-01  4.18927E-01  4.48630E-01  4.40874E-01  4.59360E-01  4.94063E-01  4.87238E-01  5.09329E-01
   5.51308E-01  5.87176E-01  6.53775E-01  7.24708E-01  8.36708E-01  9.99822E-01  1.18710E+00  1.41997E+00  1.63563E+00  1.88190E+00
   2.11669E+00  2.31681E+00  2.41414E+00  2.39228E+00  2.24528E+00  1.98814E+00  1.76524E+00  1.50517E+00  1.33915E+00  1.14596E+00
   1.00677E+00  8.84741E-01  7.63173E-01  7.12426E-01  6.61879E-01  6.52550E-01  5.98070E-01  5.56113E-01  5.26873E-01  5.08686E-01
   5.17093E-01  4.74686E-01  4.89492E-01  4.86166E-01  4.64380E-01  4.90757E-01  4.91404E-01  5.36811E-01  4.97056E-01  4.94565E-01
   4.72828E-01  4.92323E-01  4.31104E-01  4.42052E-01  4.26236E-01  4.01306E-01  3.91219E-01  4.17212E-01  3.64280E-01  3.64395E-01
   3.52158E-01  3.30180E-01  3.18234E-01  3.36215E-01  3.38052E-01  3.25309E-01  3.14587E-01  2.99447E-01  3.09705E-01  3.16798E-01
   3.20827E-01  2.96580E-01  3.15268E-01  3.22574E-01  3.05545E-01  3.11961E-01  3.20945E-01  3.79956E-01  3.69656E-01  3.58912E-01
   3.55246E-01  4.04960E-01  4.26153E-01  4.34767E-01  4.41118E-01  4.38326E-01  4.40422E-01  4.16131E-01  3.75125E-01  3.63402E-01
   3.71840E-01  3.49085E-01  3.97359E-01  4.03540E-01  4.45764E-01  4.24136E-01  4.49165E-01  4.37970E-01  3.76099E-01  3.60326E-01
   2.80706E-01  2.42411E-01  2.47766E-01  2.03839E-01  2.17806E-01  2.11400E-01  2.31927E-01  2.03886E-01  2.17887E-01  2.31318E-01
   2.35870E-01  2.85680E-01  2.73399E-01  3.31368E-01  3.27262E-01  3.88636E-01  4.05401E-01  4.00065E-01  4.37111E-01  4.62483E-01
   4.54950E-01  4.17616E-01  4.57683E-01  4.24335E-01  4.62574E-01  4.67517E-01  4.81871E-01  4.87857E-01  5.83703E-01  5.87068E-01
   5.96341E-01  5.75625E-01  5.76320E-01  5.68963E-01  5.68699E-01  5.58008E-01  5.19043E-01  4.97860E-01  4.95298E-01  4.42334E-01
   4.30799E-01  4.20316E-01  4.02163E-01  3.63685E-01  3.75114E-01  3.73645E-01  3.48192E-01  3.71488E-01  3.90351E-01  4.05414E-01
   3.82195E-01  3.90458E-01  3.77790E-01  4.31895E-01  4.18120E-01  4.62064E-01  5.23346E-01  5.46977E-01  5.34930E-01  5.97002E-01
   5.83513E-01  6.09702E-01  6.20423E-01  6.50127E-01  6.31590E-01  6.69647E-01  7.04092E-01  7.18941E-01  7.57638E-01  7.61517E-01
   8.03797E-01  8.00218E-01  7.87109E-01  7.50093E-01  7.45765E-01  7.08914E-01  6.94920E-01  6.24023E-01  6.02416E-01  5.19196E-01
   5.09747E-01  5.22451E-01  4.91502E-01  5.04926E-01  5.33390E-01  5.90110E-01  6.62823E-01  7.27993E-01  8.41855E-01  9.43599E-01
   1.03698E+00  1.11561E+00  1.14134E+00  1.15709E+00  1.09161E+00  1.10302E+00  9.74008E-01  8.66317E-01  8.22041E-01  7.37926E-01
   6.89224E-01  5.97646E-01  5.91932E-01  6.06580E-01  6.03221E-01  6.52079E-01  7.20242E-01  7.51347E-01  7.77348E-01  8.60520E-01
   9.06401E-01  8.83087E-01  8.59760E-01  8.81594E-01  8.26992E-01  7.93357E-01  7.67703E-01  7.66759E-01  7.56244E-01  7.05258E-01
   6.86049E-01  6.82214E-01  6.59700E-01  6.63510E-01  6.61138E-01  6.25315E-01  6.43967E-01  6.32479E-01  6.72965E-01  6.51783E-01
   6.42563E-01  6.38214E-01  6.69751E-01  6.68775E-01  6.85459E-01  6.22634E-01  7.00430E-01  6.49324E-01  6.74914E-01  6.53975E-01
   6.73070E-01  6.10324E-01  6.26481E-01  6.31357E-01  6.54693E-01  6.46314E-01  6.64502E-01  6.72681E-01  7.54012E-01  7.26352E-01
   8.13579E-01  8.32147E-01  8.81709E-01  8.81151E-01  9.04480E-01  9.01951E-01  9.41463E-01  9.38180E-01  9.01976E-01  9.52823E-01
   9.30919E-01  9.55900E-01  9.69480E-01  1.00085E+00  1.04588E+00  1.10882E+00  1.19118E+00  1.18047E+00  1.29359E+00  1.37601E+00
   1.46817E+00  1.58697E+00  1.73610E+00  1.91988E+00  2.12502E+00  2.41598E+00  2.70127E+00  3.05108E+00  3.34465E+00  3.56006E+00
   3.63828E+00  3.52233E+00  3.24370E+00  2.90918E+00  2.52618E+00  2.14936E+00  1.79868E+00  1.44478E+00  1.23341E+00  1.01330E+00
   8.75433E-01  8.13646E-01  7.32104E-01  6.83610E-01  6.31459E-01  5.99481E-01  5.63324E-01  5.68130E-01  5.22975E-01  4.81358E-01
   4.54694E-01  4.36246E-01  4.47141E-01  4.48577E-01  4.63179E-01  4.46039E-01  4.31079E-01  4.19122E-01  4.08527E-01  4.22810E-01
   4.50387E-01  3.71559E-01  4.44514E-01  3.92402E-01  4.23018E-01  3.79199E-01  3.64437E-01  3.60976E-01  4.14008E-01  3.77037E-01
   3.39438E-01  3.20044E-01  3.61730E-01  3.46732E-01  3.81399E-01  3.38946E-01  3.57272E-01  3.80180E-01  3.34815E-01  3.21342E-01
   3.40567E-01  3.19200E-01  3.30708E-01  3.35089E-01  3.43087E-01  3.53590E-01  3.09665E-01  3.13235E-01  3.36053E-01  3.16465E-01
   3.41385E-01  3.24061E-01  3.40816E-01  3.28439E-01  3.24521E-01  3.10105E-01  3.14127E-01  3.10657E-01  3.12267E-01  3.41339E-01
   3.00689E-01  3.13327E-01  3.50018E-01  3.09632E-01  2.77290E-01  3.03556E-01  3.13098E-01  3.39989E-01  3.13198E-01  3.35384E-01
   3.30129E-01  3.31006E-01  3.56471E-01  3.47963E-01  3.60189E-01  3.47142E-01  3.20646E-01  3.61467E-01  3.46947E-01  3.38517E-01
   3.46841E-01  3.51852E-01  3.23519E-01  3.61998E-01  3.37660E-01  3.46031E-01  3.48096E-01  3.74080E-01  3.61385E-01  3.71099E-01
   3.40297E-01  3.69179E-01  3.68754E-01  3.73481E-01  3.59720E-01  3.68737E-01  3.43401E-01  3.61180E-01  3.30838E-01  3.48394E-01
   3.16135E-01  3.32742E-01  3.12058E-01  3.28415E-01  3.26745E-01  3.29098E-01  3.30080E-01  3.12333E-01  3.36643E-01  3.45577E-01
   3.33513E-01  3.24344E-01  2.98022E-01  3.27746E-01  3.28838E-01  3.38716E-01  3.56564E-01  3.33783E-01  3.33218E-01  3.45834E-01
   3.63291E-01  3.61113E-01  3.60992E-01  3.68210E-01  3.48542E-01  3.64915E-01  3.82493E-01  3.93593E-01  3.90906E-01  3.93013E-01
   4.22605E-01  3.73921E-01  4.16879E-01  4.40779E-01  4.34975E-01  4.54197E-01  4.30679E-01  4.48702E-01  4.89772E-01  4.49266E-01
   4.64867E-01  4.43546E-01  4.29739E-01  4.70037E-01  4.67434E-01  4.65430E-01  4.58563E-01  4.58262E-01  4.90698E-01  4.76586E-01
   5.06632E-01  5.11824E-01  5.34080E-01  5.06467E-01  5.87196E-01  5.48040E-01  5.49066E-01  5.28924E-01  5.16578E-01  4.98651E-01
   5.03504E-01  5.04616E-01  4.71880E-01  4.38869E-01  4.53515E-01  4.23820E-01  4.33553E-01  4.37637E-01  4.19883E-01  4.64296E-01
   4.15689E-01  4.15556E-01  4.41423E-01  4.09271E-01  4.12672E-01  3.99677E-01  4.18322E-01  4.03803E-01  3.94081E-01  3.87267E-01
   3.75442E-01  3.93529E-01  3.86712E-01  3.76957E-01  3.90297E-01  3.89071E-01  3.71773E-01  3.64335E-01  3.93736E-01  3.74772E-01
   3.53335E-01  3.55514E-01  3.53688E-01  3.32212E-01  3.71366E-01  3.52296E-01  3.33168E-01  3.48781E-01  3.23526E-01  3.07201E-01
   3.38184E-01  3.25043E-01  3.12070E-01  3.19037E-01  3.23373E-01  3.21396E-01  3.03828E-01  2.97509E-01  3.21243E-01  2.86729E-01
   2.46617E-01  2.52133E-01  2.47365E-01  2.65733E-01  2.29912E-01  2.65867E-01  2.36515E-01  2.65652E-01  2.34967E-01  2.56544E-01
   2.26210E-01  1.92070E-01  2.29917E-01  2.30139E-01  2.40492E-01  2.44115E-01  2.50885E-01  2.50850E-01  2.24640E-01  2.23995E-01
   2.34131E-01  2.37418E-01  2.41899E-01  2.89759E-01  2.41299E-01  2.44507E-01  2.61073E-01  2.55031E-01  2.58896E-01  2.69426E-01
   2.54301E-01  2.76295E-01  2.76886E-01  2.80192E-01  2.99499E-01  3.12144E-01  3.32201E-01  3.33904E-01  3.46247E-01  3.57327E-01
   3.47758E-01  3.69755E-01  3.69967E-01  4.26237E-01  4.16461E-01  4.23826E-01  4.34747E-01  4.46168E-01  4.38554E-01  4.37565E-01
   4.37941E-01  4.27060E-01  4.57195E-01  4.83273E-01  4.87496E-01  4.83030E-01  4.51772E-01  4.49603E-01  5.09088E-01  5.08594E-01
   5.05289E-01  4.70014E-01  4.98276E-01  4.80733E-01  4.56365E-01  4.86331E-01  4.42400E-01  4.57045E-01  4.33244E-01  4.43120E-01
   4.05465E-01  4.26165E-01  4.73148E-01  3.85600E-01  3.99110E-01  3.44288E-01  3.85122E-01  3.48359E-01  3.22660E-01  3.03078E-01
   2.92902E-01  2.58280E-01  2.68478E-01  2.68932E-01  2.66786E-01  2.37043E-01  2.17737E-01  2.37885E-01  2.29154E-01  2.03119E-01
   2.06505E-01  1.92478E-01  1.77298E-01  1.72822E-01  1.95686E-01  1.79029E-01  1.39156E-01  1.89264E-01  1.15315E-01  1.46707E-01
   1.30737E-01  1.69880E-01  1.16336E-01  1.51353E-01  1.27832E-01  1.11147E-01  8.31740E-02  1.04012E-01  1.48188E-01  1.19750E-01
   1.27329E-01  1.23772E-01  1.28408E-01  6.48967E-02  1.06157E-01  1.27525E-01  1.20007E-01  1.02082E-01  9.49482E-02  9.13841E-02
   1.14494E-01  1.30017E-01  8.28113E-02  1.02956E-01  9.91141E-02  1.00261E-01  7.23805E-02  8.82221E-02  1.08945E-01  8.69534E-02
   9.30548E-02  1.31794E-01  9.14950E-02  1.29559E-01  1.21372E-01  5.47207E-02  8.46864E-02  6.97099E-02  7.56880E-02  1.15948E-01
   1.05890E-01  7.28713E-02  6.42327E-02  1.09428E-01  7.28994E-02  6.77827E-02  1.14899E-01  8.19774E-02  6.68397E-02  7.32538E-02
   1.07230E-01  1.17537E-01  7.96603E-02  6.95694E-02
 NY points of the fit to the data follow
   4.79915E-01  4.65723E-01  4.58033E-01  4.53124E-01  4.50918E-01  4.50369E-01  4.50518E-01  4.53234E-01  4.58725E-01  4.66542E-01
   4.77762E-01  4.94184E-01  5.17486E-01  5.49677E-01  5.93502E-01  6.49854E-01  7.16113E-01  7.88060E-01  8.71932E-01  9.79279E-01
   1.09481E+00  1.21745E+00  1.33955E+00  1.45081E+00  1.53546E+00  1.57504E+00  1.57755E+00  1.55432E+00  1.52054E+00  1.48331E+00
   1.42109E+00  1.33041E+00  1.22465E+00  1.10867E+00  1.00375E+00  9.20099E-01  8.48063E-01  7.86306E-01  7.33365E-01  6.86907E-01
   6.50924E-01  6.27662E-01  6.14953E-01  6.09182E-01  6.09627E-01  6.16538E-01  6.28491E-01  6.42148E-01  6.55531E-01  6.67573E-01
   6.77944E-01  6.87581E-01  6.97131E-01  7.08521E-01  7.23153E-01  7.40238E-01  7.58509E-01  7.76990E-01  7.98161E-01  8.25352E-01
   8.56371E-01  8.92745E-01  9.33721E-01  9.78003E-01  1.01765E+00  1.04151E+00  1.05180E+00  1.05375E+00  1.05233E+00  1.04824E+00
   1.03483E+00  1.01099E+00  9.81013E-01  9.44344E-01  9.05012E-01  8.67345E-01  8.33137E-01  8.03652E-01  7.78633E-01  7.57965E-01
   7.43342E-01  7.37499E-01  7.38367E-01  7.42500E-01  7.44740E-01  7.40359E-01  7.30198E-01  7.17560E-01  7.07455E-01  7.04926E-01
   7.11507E-01  7.29418E-01  7.58908E-01  7.99427E-01  8.48753E-01  8.98842E-01  9.38770E-01  9.56788E-01  9.45340E-01  9.03523E-01
   8.38230E-01  7.61662E-01  6.86355E-01  6.20510E-01  5.68229E-01  5.32005E-01  5.13066E-01  5.10922E-01  5.23764E-01  5.52709E-01
   5.99964E-01  6.63329E-01  7.39601E-01  8.28983E-01  9.23930E-01  1.01292E+00  1.08150E+00  1.12242E+00  1.14097E+00  1.13425E+00
   1.10921E+00  1.06885E+00  1.01626E+00  9.57306E-01  8.84508E-01  8.06074E-01  7.32162E-01  6.64741E-01  6.11057E-01  5.69457E-01
   5.38950E-01  5.21301E-01  5.11256E-01  5.09316E-01  5.14167E-01  5.21089E-01  5.26039E-01  5.26862E-01  5.26144E-01  5.23177E-01
   5.18491E-01  5.12056E-01  5.02751E-01  4.92169E-01  4.78349E-01  4.62585E-01  4.48481E-01  4.36404E-01  4.28105E-01  4.23354E-01
   4.20671E-01  4.20508E-01  4.21056E-01  4.19487E-01  4.14324E-01  4.05937E-01  3.95724E-01  3.86027E-01  3.79597E-01  3.76419E-01
   3.77113E-01  3.82027E-01  3.89917E-01  3.99902E-01  4.09670E-01  4.17542E-01  4.22142E-01  4.21657E-01  4.18920E-01  4.13568E-01
   4.05354E-01  3.94870E-01  3.80504E-01  3.64661E-01  3.47174E-01  3.30573E-01  3.18545E-01  3.11606E-01  3.11389E-01  3.17345E-01
   3.28860E-01  3.47248E-01  3.72522E-01  4.02534E-01  4.35189E-01  4.68149E-01  5.03182E-01  5.35504E-01  5.63791E-01  5.89958E-01
   6.12200E-01  6.31490E-01  6.41382E-01  6.45024E-01  6.48225E-01  6.57759E-01  6.84324E-01  7.26247E-01  7.80278E-01  8.51942E-01
   9.48784E-01  1.06363E+00  1.19373E+00  1.32722E+00  1.44758E+00  1.52840E+00  1.54041E+00  1.48641E+00  1.38107E+00  1.24747E+00
   1.11324E+00  9.82391E-01  8.62423E-01  7.63324E-01  6.80848E-01  6.17938E-01  5.75113E-01  5.43446E-01  5.17157E-01  4.95304E-01
   4.76826E-01  4.60703E-01  4.47281E-01  4.36468E-01  4.27560E-01  4.20993E-01  4.17182E-01  4.15634E-01  4.15894E-01  4.17867E-01
   4.21419E-01  4.26395E-01  4.32749E-01  4.40572E-01  4.49974E-01  4.60941E-01  4.73818E-01  4.89357E-01  5.08591E-01  5.33263E-01
   5.66340E-01  6.12216E-01  6.76548E-01  7.64131E-01  8.73333E-01  1.00701E+00  1.18552E+00  1.39339E+00  1.62630E+00  1.87356E+00
