 LCModel (Version 6.3-0D) Copyright: S.W. Provencher.          Ref.: Magn. Reson. Med. 30:672-679 (1993).                
 S08_PRESS_35
 Data of: Dept of Radiology, The Johns Hopkins University School of Medicine
 17-March-2020  16:46
 32 lines in following concentration table = NCONC+1
    Conc.  %SD /Cr+PCr  Metabolite                                         
    0.000 999%   0.000 Asc                                                 
    4.386  12%   2.704 Asp                                                 
    6.152   4%   3.793 Cr                                                  
    1.323  21%   0.815 GABA                                                
    0.843  17%   0.520 GPC                                                 
    2.860   4%   1.763 GSH                                                 
    3.629  11%   2.237 Gln                                                 
   17.904   4%  11.038 Glu                                                 
   10.793   3%   6.654 Ins                                                 
    0.601  36%   0.371 Lac                                                 
   19.856   1%  12.242 NAA                                                 
    0.626  30%   0.386 NAAG                                                
    1.430  10%   0.882 PCh                                                 
    6.824   4%   4.207 PCr                                                 
    3.253  19%   2.005 PE                                                  
    0.351  13%   0.217 Scyllo                                              
    3.183  12%   1.963 Tau                                                 
    0.000 999%   0.000 -CrCH2                                              
    2.274   2%   1.402 PCh+GPC                                             
   12.976   1%   8.000 Cr+PCr                                              
   20.482   1%  12.628 NAA+NAAG                                            
   21.533   3%  13.276 Glu+Gln                                             
    3.034  79%   1.870 Lip13a                                              
    0.000 999%   0.000 Lip13b                                              
    0.938 156%   0.579 Lip09                                               
   10.245  15%   6.317 MM09                                                
    3.394  20%   2.092 Lip20                                               
    2.435  86%   1.501 MM20                                                
    6.109  18%   3.766 MM12                                                
    8.518   9%   5.252 MM14                                                
    4.102  19%   2.529 MM17                                                
   6 lines in following misc. output table
  FWHM = 0.032 ppm    S/N =  65                                            
  Data shift = 0.024 ppm                                                   
  Ph:  -9 deg      -5.0 deg/ppm                                            
  alphaB,S = 3.4E-02,   4.0E-01                                            
   26 spline knots.   Ns = 8(1)                                            
   2 inflections.     1 extrema                                            
  884 points on ppm-axis = NY
      4.000000     3.996038     3.992076     3.988114     3.984152     3.980190     3.976228     3.972266     3.968304     3.964342
      3.960380     3.956418     3.952456     3.948493     3.944531     3.940569     3.936607     3.932645     3.928683     3.924721
      3.920759     3.916797     3.912835     3.908873     3.904911     3.900949     3.896987     3.893025     3.889063     3.885101
      3.881139     3.877177     3.873215     3.869253     3.865291     3.861329     3.857367     3.853405     3.849442     3.845480
      3.841518     3.837556     3.833594     3.829632     3.825670     3.821708     3.817746     3.813784     3.809822     3.805860
      3.801898     3.797936     3.793974     3.790012     3.786050     3.782088     3.778126     3.774164     3.770202     3.766240
      3.762278     3.758316     3.754354     3.750391     3.746429     3.742467     3.738505     3.734543     3.730581     3.726619
      3.722657     3.718695     3.714733     3.710771     3.706809     3.702847     3.698885     3.694923     3.690961     3.686999
      3.683037     3.679075     3.675113     3.671151     3.667189     3.663227     3.659265     3.655303     3.651340     3.647378
      3.643416     3.639454     3.635492     3.631530     3.627568     3.623606     3.619644     3.615682     3.611720     3.607758
      3.603796     3.599834     3.595872     3.591910     3.587948     3.583986     3.580024     3.576062     3.572100     3.568138
      3.564176     3.560214     3.556252     3.552289     3.548327     3.544365     3.540403     3.536441     3.532479     3.528517
      3.524555     3.520593     3.516631     3.512669     3.508707     3.504745     3.500783     3.496821     3.492859     3.488897
      3.484935     3.480973     3.477011     3.473049     3.469087     3.465125     3.461163     3.457201     3.453238     3.449276
      3.445314     3.441352     3.437390     3.433428     3.429466     3.425504     3.421542     3.417580     3.413618     3.409656
      3.405694     3.401732     3.397770     3.393808     3.389846     3.385884     3.381922     3.377960     3.373998     3.370036
      3.366074     3.362112     3.358150     3.354187     3.350225     3.346263     3.342301     3.338339     3.334377     3.330415
      3.326453     3.322491     3.318529     3.314567     3.310605     3.306643     3.302681     3.298719     3.294757     3.290795
      3.286833     3.282871     3.278909     3.274947     3.270985     3.267023     3.263061     3.259099     3.255136     3.251174
      3.247212     3.243250     3.239288     3.235326     3.231364     3.227402     3.223440     3.219478     3.215516     3.211554
      3.207592     3.203630     3.199668     3.195706     3.191744     3.187782     3.183820     3.179858     3.175896     3.171934
      3.167972     3.164010     3.160048     3.156085     3.152123     3.148161     3.144199     3.140237     3.136275     3.132313
      3.128351     3.124389     3.120427     3.116465     3.112503     3.108541     3.104579     3.100617     3.096655     3.092693
      3.088731     3.084769     3.080807     3.076845     3.072883     3.068921     3.064959     3.060997     3.057034     3.053072
      3.049110     3.045148     3.041186     3.037224     3.033262     3.029300     3.025338     3.021376     3.017414     3.013452
      3.009490     3.005528     3.001566     2.997604     2.993642     2.989680     2.985718     2.981756     2.977794     2.973832
      2.969870     2.965908     2.961946     2.957983     2.954021     2.950059     2.946097     2.942135     2.938173     2.934211
      2.930249     2.926287     2.922325     2.918363     2.914401     2.910439     2.906477     2.902515     2.898553     2.894591
      2.890629     2.886667     2.882705     2.878743     2.874781     2.870819     2.866857     2.862895     2.858932     2.854970
      2.851008     2.847046     2.843084     2.839122     2.835160     2.831198     2.827236     2.823274     2.819312     2.815350
      2.811388     2.807426     2.803464     2.799502     2.795540     2.791578     2.787616     2.783654     2.779692     2.775730
      2.771768     2.767806     2.763844     2.759881     2.755919     2.751957     2.747995     2.744033     2.740071     2.736109
      2.732147     2.728185     2.724223     2.720261     2.716299     2.712337     2.708375     2.704413     2.700451     2.696489
      2.692527     2.688565     2.684603     2.680641     2.676679     2.672717     2.668755     2.664793     2.660830     2.656868
      2.652906     2.648944     2.644982     2.641020     2.637058     2.633096     2.629134     2.625172     2.621210     2.617248
      2.613286     2.609324     2.605362     2.601400     2.597438     2.593476     2.589514     2.585552     2.581590     2.577628
      2.573666     2.569704     2.565742     2.561779     2.557817     2.553855     2.549893     2.545931     2.541969     2.538007
      2.534045     2.530083     2.526121     2.522159     2.518197     2.514235     2.510273     2.506311     2.502349     2.498387
      2.494425     2.490463     2.486501     2.482539     2.478577     2.474615     2.470653     2.466691     2.462729     2.458766
      2.454804     2.450842     2.446880     2.442918     2.438956     2.434994     2.431032     2.427070     2.423108     2.419146
      2.415184     2.411222     2.407260     2.403298     2.399336     2.395374     2.391412     2.387450     2.383488     2.379526
      2.375564     2.371602     2.367640     2.363678     2.359715     2.355753     2.351791     2.347829     2.343867     2.339905
      2.335943     2.331981     2.328019     2.324057     2.320095     2.316133     2.312171     2.308209     2.304247     2.300285
      2.296323     2.292361     2.288399     2.284437     2.280475     2.276513     2.272551     2.268589     2.264627     2.260664
      2.256702     2.252740     2.248778     2.244816     2.240854     2.236892     2.232930     2.228968     2.225006     2.221044
      2.217082     2.213120     2.209158     2.205196     2.201234     2.197272     2.193310     2.189348     2.185386     2.181424
      2.177462     2.173500     2.169538     2.165576     2.161613     2.157651     2.153689     2.149727     2.145765     2.141803
      2.137841     2.133879     2.129917     2.125955     2.121993     2.118031     2.114069     2.110107     2.106145     2.102183
      2.098221     2.094259     2.090297     2.086335     2.082373     2.078411     2.074449     2.070487     2.066525     2.062562
      2.058600     2.054638     2.050676     2.046714     2.042752     2.038790     2.034828     2.030866     2.026904     2.022942
      2.018980     2.015018     2.011056     2.007094     2.003132     1.999170     1.995208     1.991246     1.987284     1.983322
      1.979360     1.975398     1.971436     1.967474     1.963511     1.959549     1.955587     1.951625     1.947663     1.943701
      1.939739     1.935777     1.931815     1.927853     1.923891     1.919929     1.915967     1.912005     1.908043     1.904081
      1.900119     1.896157     1.892195     1.888233     1.884271     1.880309     1.876347     1.872385     1.868423     1.864460
      1.860498     1.856536     1.852574     1.848612     1.844650     1.840688     1.836726     1.832764     1.828802     1.824840
      1.820878     1.816916     1.812954     1.808992     1.805030     1.801068     1.797106     1.793144     1.789182     1.785220
      1.781258     1.777296     1.773334     1.769372     1.765409     1.761447     1.757485     1.753523     1.749561     1.745599
      1.741637     1.737675     1.733713     1.729751     1.725789     1.721827     1.717865     1.713903     1.709941     1.705979
      1.702017     1.698055     1.694093     1.690131     1.686169     1.682207     1.678245     1.674283     1.670321     1.666358
      1.662396     1.658434     1.654472     1.650510     1.646548     1.642586     1.638624     1.634662     1.630700     1.626738
      1.622776     1.618814     1.614852     1.610890     1.606928     1.602966     1.599004     1.595042     1.591080     1.587118
      1.583156     1.579194     1.575232     1.571270     1.567307     1.563345     1.559383     1.555421     1.551459     1.547497
      1.543535     1.539573     1.535611     1.531649     1.527687     1.523725     1.519763     1.515801     1.511839     1.507877
      1.503915     1.499953     1.495991     1.492029     1.488067     1.484105     1.480143     1.476181     1.472219     1.468256
      1.464294     1.460332     1.456370     1.452408     1.448446     1.444484     1.440522     1.436560     1.432598     1.428636
      1.424674     1.420712     1.416750     1.412788     1.408826     1.404864     1.400902     1.396940     1.392978     1.389016
      1.385054     1.381092     1.377130     1.373168     1.369205     1.365243     1.361281     1.357319     1.353357     1.349395
      1.345433     1.341471     1.337509     1.333547     1.329585     1.325623     1.321661     1.317699     1.313737     1.309775
      1.305813     1.301851     1.297889     1.293927     1.289965     1.286003     1.282041     1.278079     1.274117     1.270154
      1.266192     1.262230     1.258268     1.254306     1.250344     1.246382     1.242420     1.238458     1.234496     1.230534
      1.226572     1.222610     1.218648     1.214686     1.210724     1.206762     1.202800     1.198838     1.194876     1.190914
      1.186952     1.182990     1.179028     1.175066     1.171103     1.167141     1.163179     1.159217     1.155255     1.151293
      1.147331     1.143369     1.139407     1.135445     1.131483     1.127521     1.123559     1.119597     1.115635     1.111673
      1.107711     1.103749     1.099787     1.095825     1.091863     1.087901     1.083939     1.079977     1.076015     1.072052
      1.068090     1.064128     1.060166     1.056204     1.052242     1.048280     1.044318     1.040356     1.036394     1.032432
      1.028470     1.024508     1.020546     1.016584     1.012622     1.008660     1.004698     1.000736     0.996774     0.992812
      0.988850     0.984888     0.980926     0.976964     0.973001     0.969039     0.965077     0.961115     0.957153     0.953191
      0.949229     0.945267     0.941305     0.937343     0.933381     0.929419     0.925457     0.921495     0.917533     0.913571
      0.909609     0.905647     0.901685     0.897723     0.893761     0.889799     0.885837     0.881875     0.877913     0.873950
      0.869988     0.866026     0.862064     0.858102     0.854140     0.850178     0.846216     0.842254     0.838292     0.834330
      0.830368     0.826406     0.822444     0.818482     0.814520     0.810558     0.806596     0.802634     0.798672     0.794710
      0.790748     0.786786     0.782824     0.778862     0.774899     0.770937     0.766975     0.763013     0.759051     0.755089
      0.751127     0.747165     0.743203     0.739241     0.735279     0.731317     0.727355     0.723393     0.719431     0.715469
      0.711507     0.707545     0.703583     0.699621     0.695659     0.691697     0.687735     0.683773     0.679811     0.675848
      0.671886     0.667924     0.663962     0.660000     0.656038     0.652076     0.648114     0.644152     0.640190     0.636228
      0.632266     0.628304     0.624342     0.620380     0.616418     0.612456     0.608494     0.604532     0.600570     0.596608
      0.592646     0.588684     0.584722     0.580760     0.576797     0.572835     0.568873     0.564911     0.560949     0.556987
      0.553025     0.549063     0.545101     0.541139     0.537177     0.533215     0.529253     0.525291     0.521329     0.517367
      0.513405     0.509443     0.505481     0.501519
 NY phased data points follow
   5.39589E-01  5.35090E-01  5.04427E-01  4.70197E-01  5.09630E-01  5.18839E-01  4.74690E-01  5.16609E-01  5.26406E-01  5.25509E-01
   5.31928E-01  5.54614E-01  5.69801E-01  5.89593E-01  6.59282E-01  6.96000E-01  7.69013E-01  8.14408E-01  8.91042E-01  9.61403E-01
   1.04151E+00  1.15925E+00  1.28757E+00  1.42324E+00  1.48397E+00  1.55964E+00  1.57497E+00  1.64552E+00  1.64379E+00  1.60587E+00
   1.58284E+00  1.50552E+00  1.39931E+00  1.29283E+00  1.13465E+00  1.02777E+00  9.39486E-01  8.80034E-01  8.08730E-01  7.87965E-01
   7.07487E-01  7.21418E-01  6.82487E-01  6.61270E-01  6.56451E-01  6.62245E-01  6.58247E-01  6.58723E-01  6.87598E-01  6.85706E-01
   6.85562E-01  7.09403E-01  7.31706E-01  7.37720E-01  7.62573E-01  7.88812E-01  8.16818E-01  7.96314E-01  8.37523E-01  8.68563E-01
   8.83783E-01  8.74243E-01  8.90496E-01  9.18653E-01  9.50616E-01  9.98509E-01  1.01341E+00  1.07002E+00  1.09452E+00  1.12183E+00
   1.07226E+00  1.05510E+00  1.01674E+00  9.54806E-01  9.53332E-01  8.65803E-01  8.15170E-01  8.37991E-01  8.42275E-01  8.24131E-01
   8.11366E-01  8.22079E-01  7.99352E-01  8.02137E-01  7.59208E-01  7.89831E-01  7.67500E-01  7.32432E-01  7.28286E-01  7.29841E-01
   7.37131E-01  7.60084E-01  7.93199E-01  8.27421E-01  9.00050E-01  9.30458E-01  9.77715E-01  1.04628E+00  1.03943E+00  1.02288E+00
   1.00133E+00  9.50128E-01  8.47712E-01  7.78575E-01  6.68321E-01  5.95066E-01  5.41431E-01  5.29765E-01  5.30371E-01  5.29928E-01
   6.21816E-01  6.44137E-01  7.18773E-01  7.99371E-01  8.79984E-01  1.02993E+00  1.08955E+00  1.21332E+00  1.23232E+00  1.26534E+00
   1.24887E+00  1.23383E+00  1.15368E+00  1.07658E+00  9.94497E-01  9.34427E-01  8.48688E-01  7.73248E-01  6.66604E-01  6.09431E-01
   5.96076E-01  5.55195E-01  5.12092E-01  5.36649E-01  5.45804E-01  5.34778E-01  5.15176E-01  5.41173E-01  5.09260E-01  5.70791E-01
   5.72245E-01  5.40214E-01  5.59603E-01  5.35019E-01  5.24352E-01  5.79173E-01  5.56829E-01  5.19217E-01  4.71436E-01  4.94921E-01
   4.96342E-01  5.15061E-01  4.98423E-01  4.69855E-01  4.44397E-01  4.62845E-01  4.40572E-01  4.07993E-01  4.10566E-01  4.01392E-01
   3.85516E-01  3.93375E-01  3.73129E-01  3.76801E-01  4.05257E-01  4.43524E-01  4.70882E-01  4.76137E-01  4.87054E-01  4.86197E-01
   4.82167E-01  4.70163E-01  4.89929E-01  4.65848E-01  4.10039E-01  4.06002E-01  3.70260E-01  3.57480E-01  3.14632E-01  3.07318E-01
   2.92869E-01  3.40619E-01  3.58443E-01  3.55927E-01  4.29900E-01  4.62293E-01  4.70345E-01  5.16953E-01  5.34754E-01  5.98589E-01
   6.25451E-01  6.30517E-01  6.58594E-01  6.83970E-01  6.78253E-01  6.82094E-01  6.82609E-01  7.05250E-01  7.29863E-01  7.77529E-01
   8.56829E-01  9.34174E-01  1.06458E+00  1.18191E+00  1.32524E+00  1.43427E+00  1.51958E+00  1.58249E+00  1.53385E+00  1.42493E+00
   1.28769E+00  1.14244E+00  9.83764E-01  8.64857E-01  7.49768E-01  6.57791E-01  6.29633E-01  5.94713E-01  5.61985E-01  5.27040E-01
   4.92315E-01  4.61752E-01  4.60464E-01  4.24806E-01  4.38756E-01  4.21959E-01  3.86028E-01  4.17684E-01  4.04967E-01  4.06400E-01
   3.78444E-01  4.45109E-01  4.00704E-01  4.29168E-01  3.98203E-01  4.39403E-01  4.30929E-01  4.45743E-01  4.88938E-01  4.64870E-01
   5.50595E-01  5.68739E-01  5.98105E-01  7.01578E-01  7.96571E-01  9.36708E-01  1.12354E+00  1.32796E+00  1.57127E+00  1.78544E+00
   2.00753E+00  2.22185E+00  2.36165E+00  2.37898E+00  2.35595E+00  2.20280E+00  1.99328E+00  1.75702E+00  1.48257E+00  1.26682E+00
   1.02798E+00  8.67866E-01  7.81210E-01  7.40597E-01  6.77389E-01  6.80413E-01  5.85813E-01  5.35990E-01  5.12117E-01  4.87110E-01
   4.67581E-01  4.30820E-01  4.52467E-01  4.39423E-01  4.49681E-01  4.19676E-01  4.69491E-01  4.55678E-01  4.33904E-01  4.96920E-01
   4.42115E-01  4.23840E-01  4.36205E-01  3.96954E-01  4.01598E-01  3.99033E-01  3.82618E-01  3.81251E-01  3.70012E-01  3.63032E-01
   3.29699E-01  3.48813E-01  3.09599E-01  3.26108E-01  3.29975E-01  2.84958E-01  2.79311E-01  2.94901E-01  2.80337E-01  2.95435E-01
   3.09088E-01  2.82208E-01  3.11226E-01  2.92557E-01  2.84157E-01  3.11466E-01  3.12397E-01  3.03444E-01  3.35626E-01  3.94027E-01
   4.04594E-01  3.82655E-01  4.10369E-01  4.14741E-01  4.46239E-01  4.12868E-01  4.22694E-01  3.89207E-01  3.86396E-01  3.78260E-01
   3.40591E-01  3.43438E-01  3.79955E-01  3.53982E-01  3.82281E-01  3.87927E-01  4.28626E-01  3.71041E-01  3.69099E-01  3.26474E-01
   2.64918E-01  2.42213E-01  2.06571E-01  1.69428E-01  1.33614E-01  1.67066E-01  1.92179E-01  1.91957E-01  1.97047E-01  1.86474E-01
   1.82824E-01  2.47180E-01  2.67749E-01  2.76577E-01  3.06322E-01  3.32471E-01  3.61702E-01  3.98983E-01  4.22638E-01  4.13128E-01
   4.19243E-01  4.31579E-01  4.30947E-01  4.10249E-01  4.50024E-01  4.53964E-01  4.70316E-01  4.96017E-01  5.30120E-01  4.90666E-01
   5.53661E-01  5.85647E-01  5.63594E-01  5.72775E-01  5.49756E-01  5.05672E-01  4.99164E-01  4.69860E-01  4.39625E-01  4.22308E-01
   3.92820E-01  4.15478E-01  3.51236E-01  3.62053E-01  3.24907E-01  2.89942E-01  3.72173E-01  3.35617E-01  3.45728E-01  3.38135E-01
   3.37511E-01  3.66036E-01  3.70890E-01  4.00414E-01  4.18271E-01  4.07412E-01  4.60640E-01  4.90634E-01  4.82744E-01  5.54225E-01
   5.19271E-01  5.53855E-01  5.67650E-01  5.80069E-01  5.99507E-01  6.48270E-01  6.37093E-01  6.92494E-01  7.19472E-01  7.41815E-01
   7.45403E-01  7.79855E-01  7.57296E-01  7.35473E-01  7.31148E-01  6.26587E-01  6.61248E-01  5.69594E-01  5.30028E-01  4.96373E-01
   4.72470E-01  4.59591E-01  4.56073E-01  4.53771E-01  5.30500E-01  5.72406E-01  6.29029E-01  6.92112E-01  8.08393E-01  8.74634E-01
   9.61964E-01  1.06539E+00  1.06337E+00  1.08067E+00  1.02864E+00  9.96467E-01  9.35696E-01  8.49098E-01  7.48056E-01  6.95705E-01
   6.59107E-01  6.11010E-01  6.05614E-01  5.80085E-01  6.20757E-01  6.42052E-01  6.65181E-01  7.17360E-01  8.04512E-01  7.70974E-01
   7.89046E-01  8.17613E-01  8.30555E-01  8.26706E-01  7.62740E-01  7.11247E-01  7.26371E-01  7.08324E-01  6.72996E-01  6.43133E-01
   6.19668E-01  6.14335E-01  6.11725E-01  5.99546E-01  5.99938E-01  5.75941E-01  5.64129E-01  5.67906E-01  5.76421E-01  5.67614E-01
   5.73927E-01  5.90578E-01  5.89161E-01  6.22202E-01  6.37557E-01  6.16566E-01  5.89548E-01  6.34682E-01  6.12614E-01  5.90524E-01
   5.50488E-01  5.83874E-01  5.48838E-01  5.49932E-01  5.65043E-01  5.49119E-01  6.19955E-01  6.05070E-01  6.64623E-01  7.01100E-01
   7.51173E-01  7.61025E-01  7.98499E-01  8.40251E-01  8.38480E-01  8.52211E-01  8.28264E-01  8.93748E-01  8.32393E-01  8.70672E-01
   8.89824E-01  8.99159E-01  9.18147E-01  9.50178E-01  9.82611E-01  1.03373E+00  1.07103E+00  1.16820E+00  1.19280E+00  1.30960E+00
   1.44197E+00  1.57216E+00  1.73761E+00  1.99810E+00  2.26924E+00  2.56312E+00  2.86374E+00  3.17038E+00  3.38201E+00  3.52874E+00
   3.52809E+00  3.42363E+00  3.20129E+00  2.91881E+00  2.52083E+00  2.13238E+00  1.75119E+00  1.44542E+00  1.20951E+00  1.03121E+00
   8.99649E-01  8.40815E-01  7.44963E-01  7.06374E-01  7.13209E-01  6.55672E-01  5.87038E-01  5.68386E-01  5.40252E-01  4.64084E-01
   5.12631E-01  4.74992E-01  4.57321E-01  4.85591E-01  4.78130E-01  4.56677E-01  4.70559E-01  4.66787E-01  4.33799E-01  4.23752E-01
   4.54629E-01  4.34739E-01  4.09901E-01  4.19210E-01  4.14319E-01  4.00482E-01  3.96880E-01  3.80866E-01  3.69523E-01  3.76300E-01
   3.73010E-01  3.83450E-01  3.84366E-01  3.87110E-01  3.77904E-01  3.88917E-01  3.57226E-01  3.72950E-01  3.53397E-01  3.46218E-01
   3.60117E-01  3.48132E-01  3.56804E-01  3.55771E-01  3.19192E-01  3.60974E-01  3.16130E-01  3.17227E-01  3.38149E-01  3.20822E-01
   3.03955E-01  3.00289E-01  2.86861E-01  3.10983E-01  3.40454E-01  3.33246E-01  3.42388E-01  3.08311E-01  3.43886E-01  3.42154E-01
   3.21040E-01  3.07803E-01  2.88146E-01  2.93918E-01  3.09686E-01  3.04583E-01  2.92869E-01  3.21012E-01  3.03385E-01  3.11046E-01
   3.52819E-01  3.47710E-01  3.46687E-01  3.09213E-01  3.09355E-01  3.26029E-01  3.17765E-01  3.43019E-01  3.66158E-01  3.23645E-01
   3.61807E-01  3.26026E-01  3.54049E-01  3.14502E-01  3.32325E-01  3.45778E-01  3.44615E-01  3.43830E-01  3.61121E-01  3.52284E-01
   3.20134E-01  3.44637E-01  3.04902E-01  3.34228E-01  3.45367E-01  3.40653E-01  3.40305E-01  3.28584E-01  3.34008E-01  3.14916E-01
   3.10550E-01  3.05052E-01  3.15223E-01  3.15893E-01  2.85285E-01  2.71382E-01  3.05079E-01  2.98287E-01  2.75139E-01  2.83518E-01
   2.88267E-01  2.77391E-01  2.53824E-01  2.95894E-01  2.66980E-01  2.99776E-01  2.77194E-01  2.63995E-01  2.73001E-01  2.93457E-01
   2.85945E-01  2.30570E-01  2.88329E-01  3.04802E-01  3.06681E-01  2.66293E-01  3.01560E-01  3.29961E-01  3.36929E-01  3.32799E-01
   3.30376E-01  3.47762E-01  3.44236E-01  3.66617E-01  3.72246E-01  3.60098E-01  3.98764E-01  4.14369E-01  4.07644E-01  4.45045E-01
   4.46059E-01  4.41039E-01  3.96355E-01  4.35369E-01  4.35459E-01  4.34000E-01  4.87281E-01  4.68966E-01  5.04025E-01  5.08161E-01
   4.70289E-01  5.20630E-01  5.00191E-01  4.84487E-01  4.85145E-01  5.15101E-01  5.17690E-01  5.16796E-01  5.08601E-01  4.95063E-01
   4.43300E-01  4.25553E-01  4.44040E-01  4.38461E-01  4.34522E-01  4.24675E-01  4.30305E-01  4.19509E-01  4.18330E-01  4.34182E-01
   4.34950E-01  4.18894E-01  4.43392E-01  4.25258E-01  4.43234E-01  4.02290E-01  3.86900E-01  3.96212E-01  4.26768E-01  4.07881E-01
   4.20807E-01  4.20533E-01  3.92699E-01  4.15806E-01  3.85340E-01  4.23011E-01  3.72216E-01  3.79392E-01  3.88270E-01  3.87147E-01
   3.93898E-01  4.09973E-01  3.82351E-01  3.90367E-01  3.95300E-01  3.79139E-01  3.77548E-01  4.05694E-01  3.97392E-01  4.05432E-01
   3.94399E-01  3.55538E-01  3.92312E-01  3.52320E-01  3.87452E-01  3.51782E-01  3.27361E-01  3.41672E-01  3.46933E-01  3.44724E-01
   3.24908E-01  3.28429E-01  3.04113E-01  2.95815E-01  3.44421E-01  3.22682E-01  3.36169E-01  3.48656E-01  3.28394E-01  2.94668E-01
   3.00190E-01  3.00217E-01  2.97815E-01  3.00535E-01  3.09030E-01  2.95603E-01  3.46757E-01  2.96450E-01  2.88700E-01  3.15935E-01
   3.16296E-01  3.54367E-01  3.15543E-01  3.18038E-01  3.37702E-01  3.29382E-01  3.29253E-01  3.37194E-01  3.56832E-01  3.54285E-01
   3.55572E-01  3.40439E-01  3.86774E-01  4.00060E-01  4.12329E-01  4.13468E-01  4.00498E-01  4.09914E-01  4.31515E-01  4.24486E-01
   4.43731E-01  4.71257E-01  4.80751E-01  5.11092E-01  5.22101E-01  5.03151E-01  5.29212E-01  5.25136E-01  5.42985E-01  5.30061E-01
   5.27836E-01  5.34008E-01  5.31448E-01  5.36033E-01  5.39536E-01  5.60801E-01  5.81875E-01  5.67407E-01  5.91650E-01  5.92523E-01
   5.84398E-01  5.64305E-01  5.86618E-01  5.85979E-01  5.96131E-01  5.76199E-01  5.75237E-01  5.59889E-01  5.88655E-01  5.44036E-01
   5.50998E-01  5.03462E-01  5.10372E-01  4.83294E-01  5.09395E-01  4.78385E-01  4.82188E-01  4.38632E-01  4.00763E-01  4.00970E-01
   4.08710E-01  4.17589E-01  3.71689E-01  3.89155E-01  3.67670E-01  3.51557E-01  3.41083E-01  3.70423E-01  3.22566E-01  3.24846E-01
   3.25638E-01  2.97518E-01  2.99798E-01  2.92971E-01  2.67238E-01  2.81689E-01  2.80269E-01  2.62336E-01  2.31969E-01  2.54338E-01
   2.46655E-01  2.65337E-01  2.52923E-01  2.49635E-01  2.44792E-01  2.70217E-01  2.22501E-01  2.24460E-01  2.16017E-01  2.19778E-01
   2.27762E-01  2.15548E-01  1.75058E-01  1.92164E-01  2.21843E-01  2.26693E-01  1.98549E-01  2.02798E-01  2.07691E-01  1.94543E-01
   1.91889E-01  1.78709E-01  1.89558E-01  2.11484E-01  1.80798E-01  1.62076E-01  1.84452E-01  1.73226E-01  2.00673E-01  1.82309E-01
   1.93003E-01  1.72340E-01  1.86439E-01  1.71349E-01  1.82504E-01  1.54247E-01  1.66708E-01  1.80282E-01  1.83146E-01  1.71991E-01
   1.72931E-01  1.99032E-01  1.89244E-01  1.74803E-01  1.62085E-01  1.45476E-01  1.88263E-01  1.94889E-01  1.69455E-01  1.51997E-01
   1.56035E-01  1.45118E-01  1.60871E-01  1.75633E-01
 NY points of the fit to the data follow
   5.59738E-01  5.46430E-01  5.33293E-01  5.23612E-01  5.15893E-01  5.07931E-01  5.04161E-01  5.06126E-01  5.10105E-01  5.15611E-01
   5.24015E-01  5.36177E-01  5.53818E-01  5.79286E-01  6.14283E-01  6.60398E-01  7.18692E-01  7.90130E-01  8.75324E-01  9.71156E-01
   1.06923E+00  1.18195E+00  1.30331E+00  1.40936E+00  1.50657E+00  1.58354E+00  1.62522E+00  1.65718E+00  1.66005E+00  1.62330E+00
   1.57433E+00  1.50020E+00  1.39907E+00  1.29545E+00  1.18463E+00  1.07369E+00  9.74349E-01  8.83346E-01  8.04982E-01  7.48986E-01
   7.12619E-01  6.86967E-01  6.66749E-01  6.52038E-01  6.45039E-01  6.43848E-01  6.46903E-01  6.55371E-01  6.66802E-01  6.78711E-01
   6.91191E-01  7.02857E-01  7.13524E-01  7.25346E-01  7.37654E-01  7.50579E-01  7.67639E-01  7.86622E-01  8.07615E-01  8.32765E-01
   8.57236E-01  8.88862E-01  9.28833E-01  9.65001E-01  1.00136E+00  1.03427E+00  1.05749E+00  1.07675E+00  1.08324E+00  1.07664E+00
   1.06625E+00  1.04612E+00  1.01700E+00  9.84601E-01  9.49944E-01  9.16951E-01  8.84995E-01  8.54597E-01  8.28596E-01  8.09483E-01
   7.97483E-01  7.89546E-01  7.84962E-01  7.80998E-01  7.76017E-01  7.69755E-01  7.59537E-01  7.48537E-01  7.39954E-01  7.36611E-01
   7.41706E-01  7.55390E-01  7.82344E-01  8.22350E-01  8.73205E-01  9.27220E-01  9.78283E-01  1.01534E+00  1.03100E+00  1.01816E+00
   9.76422E-01  9.12096E-01  8.31993E-01  7.44201E-01  6.62947E-01  5.95080E-01  5.48797E-01  5.26677E-01  5.28186E-01  5.51560E-01
   5.95800E-01  6.52124E-01  7.21649E-01  8.12182E-01  9.10089E-01  1.00372E+00  1.09959E+00  1.17459E+00  1.22632E+00  1.25598E+00
   1.24308E+00  1.21568E+00  1.17227E+00  1.09781E+00  1.02170E+00  9.42226E-01  8.60337E-01  7.86486E-01  7.14251E-01  6.52636E-01
   6.07931E-01  5.73546E-01  5.49093E-01  5.43144E-01  5.47419E-01  5.52202E-01  5.60276E-01  5.66331E-01  5.68291E-01  5.70099E-01
   5.64624E-01  5.57518E-01  5.51205E-01  5.37936E-01  5.24094E-01  5.12072E-01  4.98267E-01  4.86032E-01  4.74790E-01  4.64706E-01
   4.59142E-01  4.57178E-01  4.54473E-01  4.52045E-01  4.49407E-01  4.42962E-01  4.33835E-01  4.23979E-01  4.14204E-01  4.06915E-01
   4.03856E-01  4.06056E-01  4.12662E-01  4.25032E-01  4.40322E-01  4.54271E-01  4.67615E-01  4.77515E-01  4.81030E-01  4.85355E-01
   4.82274E-01  4.72903E-01  4.62462E-01  4.43100E-01  4.20119E-01  3.97709E-01  3.71639E-01  3.50405E-01  3.35568E-01  3.26871E-01
   3.28098E-01  3.39968E-01  3.59831E-01  3.87045E-01  4.19186E-01  4.55692E-01  4.92463E-01  5.27401E-01  5.55559E-01  5.89208E-01
   6.16703E-01  6.33414E-01  6.51580E-01  6.58424E-01  6.61410E-01  6.71618E-01  6.76784E-01  6.96223E-01  7.35703E-01  7.88263E-01
   8.63751E-01  9.64382E-01  1.06874E+00  1.19826E+00  1.33593E+00  1.43518E+00  1.50917E+00  1.53891E+00  1.50394E+00  1.43202E+00
   1.31200E+00  1.15837E+00  1.01301E+00  8.76763E-01  7.52124E-01  6.63481E-01  6.07480E-01  5.67134E-01  5.36261E-01  5.10397E-01
   4.86081E-01  4.65355E-01  4.47787E-01  4.31994E-01  4.18971E-01  4.10028E-01  4.04464E-01  4.01659E-01  4.01048E-01  4.02374E-01
   4.05674E-01  4.10382E-01  4.16327E-01  4.23727E-01  4.32191E-01  4.41402E-01  4.51861E-01  4.64388E-01  4.80068E-01  5.01035E-01
   5.29936E-01  5.70517E-01  6.28049E-01  7.08187E-01  8.15577E-01  9.55195E-01  1.13019E+00  1.32547E+00  1.54814E+00  1.78872E+00
