 LCModel (Version 6.3-0D) Copyright: S.W. Provencher.          Ref.: Magn. Reson. Med. 30:672-679 (1993).                
 S05_PRESS_35
 Data of: Dept of Radiology, The Johns Hopkins University School of Medicine
 17-March-2020  16:45
 32 lines in following concentration table = NCONC+1
    Conc.  %SD /Cr+PCr  Metabolite                                         
    0.000 999%   0.000 Asc                                                 
    3.051  19%   2.527 Asp                                                 
    4.803   7%   3.979 Cr                                                  
 3.61E-02 908% 3.0E-02 GABA                                                
    0.730  23%   0.605 GPC                                                 
    2.091   7%   1.732 GSH                                                 
    3.123  16%   2.587 Gln                                                 
   16.339   5%  13.536 Glu                                                 
    8.025   4%   6.648 Ins                                                 
    0.354  80%   0.293 Lac                                                 
   15.447   2%  12.797 NAA                                                 
    1.880  10%   1.557 NAAG                                                
    0.944  18%   0.782 PCh                                                 
    4.854   7%   4.021 PCr                                                 
    2.919  24%   2.418 PE                                                  
 3.91E-02 136% 3.2E-02 Scyllo                                              
 9.60E-02 451% 8.0E-02 Tau                                                 
    0.000 999%   0.000 -CrCH2                                              
    1.675   3%   1.387 PCh+GPC                                             
    9.657   2%   8.000 Cr+PCr                                              
   17.327   1%  14.354 NAA+NAAG                                            
   19.462   5%  16.123 Glu+Gln                                             
    1.791 233%   1.483 Lip13a                                              
    0.000 999%   0.000 Lip13b                                              
    0.295 571%   0.244 Lip09                                               
   11.625  18%   9.630 MM09                                                
    0.157 681%   0.130 Lip20                                               
   12.574  20%  10.417 MM20                                                
    5.847  24%   4.844 MM12                                                
    9.794  28%   8.113 MM14                                                
    4.018  38%   3.328 MM17                                                
   6 lines in following misc. output table
  FWHM = 0.032 ppm    S/N =  54                                            
  Data shift = 0.028 ppm                                                   
  Ph:  -3 deg       0.1 deg/ppm                                            
  alphaB,S = 2.8E-02,   4.0E-01                                            
   26 spline knots.   Ns =10(1)                                            
   3 inflections.     1 extrema                                            
  884 points on ppm-axis = NY
      4.000000     3.996038     3.992076     3.988114     3.984152     3.980190     3.976228     3.972266     3.968304     3.964342
      3.960380     3.956418     3.952456     3.948493     3.944531     3.940569     3.936607     3.932645     3.928683     3.924721
      3.920759     3.916797     3.912835     3.908873     3.904911     3.900949     3.896987     3.893025     3.889063     3.885101
      3.881139     3.877177     3.873215     3.869253     3.865291     3.861329     3.857367     3.853405     3.849442     3.845480
      3.841518     3.837556     3.833594     3.829632     3.825670     3.821708     3.817746     3.813784     3.809822     3.805860
      3.801898     3.797936     3.793974     3.790012     3.786050     3.782088     3.778126     3.774164     3.770202     3.766240
      3.762278     3.758316     3.754354     3.750391     3.746429     3.742467     3.738505     3.734543     3.730581     3.726619
      3.722657     3.718695     3.714733     3.710771     3.706809     3.702847     3.698885     3.694923     3.690961     3.686999
      3.683037     3.679075     3.675113     3.671151     3.667189     3.663227     3.659265     3.655303     3.651340     3.647378
      3.643416     3.639454     3.635492     3.631530     3.627568     3.623606     3.619644     3.615682     3.611720     3.607758
      3.603796     3.599834     3.595872     3.591910     3.587948     3.583986     3.580024     3.576062     3.572100     3.568138
      3.564176     3.560214     3.556252     3.552289     3.548327     3.544365     3.540403     3.536441     3.532479     3.528517
      3.524555     3.520593     3.516631     3.512669     3.508707     3.504745     3.500783     3.496821     3.492859     3.488897
      3.484935     3.480973     3.477011     3.473049     3.469087     3.465125     3.461163     3.457201     3.453238     3.449276
      3.445314     3.441352     3.437390     3.433428     3.429466     3.425504     3.421542     3.417580     3.413618     3.409656
      3.405694     3.401732     3.397770     3.393808     3.389846     3.385884     3.381922     3.377960     3.373998     3.370036
      3.366074     3.362112     3.358150     3.354187     3.350225     3.346263     3.342301     3.338339     3.334377     3.330415
      3.326453     3.322491     3.318529     3.314567     3.310605     3.306643     3.302681     3.298719     3.294757     3.290795
      3.286833     3.282871     3.278909     3.274947     3.270985     3.267023     3.263061     3.259099     3.255136     3.251174
      3.247212     3.243250     3.239288     3.235326     3.231364     3.227402     3.223440     3.219478     3.215516     3.211554
      3.207592     3.203630     3.199668     3.195706     3.191744     3.187782     3.183820     3.179858     3.175896     3.171934
      3.167972     3.164010     3.160048     3.156085     3.152123     3.148161     3.144199     3.140237     3.136275     3.132313
      3.128351     3.124389     3.120427     3.116465     3.112503     3.108541     3.104579     3.100617     3.096655     3.092693
      3.088731     3.084769     3.080807     3.076845     3.072883     3.068921     3.064959     3.060997     3.057034     3.053072
      3.049110     3.045148     3.041186     3.037224     3.033262     3.029300     3.025338     3.021376     3.017414     3.013452
      3.009490     3.005528     3.001566     2.997604     2.993642     2.989680     2.985718     2.981756     2.977794     2.973832
      2.969870     2.965908     2.961946     2.957983     2.954021     2.950059     2.946097     2.942135     2.938173     2.934211
      2.930249     2.926287     2.922325     2.918363     2.914401     2.910439     2.906477     2.902515     2.898553     2.894591
      2.890629     2.886667     2.882705     2.878743     2.874781     2.870819     2.866857     2.862895     2.858932     2.854970
      2.851008     2.847046     2.843084     2.839122     2.835160     2.831198     2.827236     2.823274     2.819312     2.815350
      2.811388     2.807426     2.803464     2.799502     2.795540     2.791578     2.787616     2.783654     2.779692     2.775730
      2.771768     2.767806     2.763844     2.759881     2.755919     2.751957     2.747995     2.744033     2.740071     2.736109
      2.732147     2.728185     2.724223     2.720261     2.716299     2.712337     2.708375     2.704413     2.700451     2.696489
      2.692527     2.688565     2.684603     2.680641     2.676679     2.672717     2.668755     2.664793     2.660830     2.656868
      2.652906     2.648944     2.644982     2.641020     2.637058     2.633096     2.629134     2.625172     2.621210     2.617248
      2.613286     2.609324     2.605362     2.601400     2.597438     2.593476     2.589514     2.585552     2.581590     2.577628
      2.573666     2.569704     2.565742     2.561779     2.557817     2.553855     2.549893     2.545931     2.541969     2.538007
      2.534045     2.530083     2.526121     2.522159     2.518197     2.514235     2.510273     2.506311     2.502349     2.498387
      2.494425     2.490463     2.486501     2.482539     2.478577     2.474615     2.470653     2.466691     2.462729     2.458766
      2.454804     2.450842     2.446880     2.442918     2.438956     2.434994     2.431032     2.427070     2.423108     2.419146
      2.415184     2.411222     2.407260     2.403298     2.399336     2.395374     2.391412     2.387450     2.383488     2.379526
      2.375564     2.371602     2.367640     2.363678     2.359715     2.355753     2.351791     2.347829     2.343867     2.339905
      2.335943     2.331981     2.328019     2.324057     2.320095     2.316133     2.312171     2.308209     2.304247     2.300285
      2.296323     2.292361     2.288399     2.284437     2.280475     2.276513     2.272551     2.268589     2.264627     2.260664
      2.256702     2.252740     2.248778     2.244816     2.240854     2.236892     2.232930     2.228968     2.225006     2.221044
      2.217082     2.213120     2.209158     2.205196     2.201234     2.197272     2.193310     2.189348     2.185386     2.181424
      2.177462     2.173500     2.169538     2.165576     2.161613     2.157651     2.153689     2.149727     2.145765     2.141803
      2.137841     2.133879     2.129917     2.125955     2.121993     2.118031     2.114069     2.110107     2.106145     2.102183
      2.098221     2.094259     2.090297     2.086335     2.082373     2.078411     2.074449     2.070487     2.066525     2.062562
      2.058600     2.054638     2.050676     2.046714     2.042752     2.038790     2.034828     2.030866     2.026904     2.022942
      2.018980     2.015018     2.011056     2.007094     2.003132     1.999170     1.995208     1.991246     1.987284     1.983322
      1.979360     1.975398     1.971436     1.967474     1.963511     1.959549     1.955587     1.951625     1.947663     1.943701
      1.939739     1.935777     1.931815     1.927853     1.923891     1.919929     1.915967     1.912005     1.908043     1.904081
      1.900119     1.896157     1.892195     1.888233     1.884271     1.880309     1.876347     1.872385     1.868423     1.864460
      1.860498     1.856536     1.852574     1.848612     1.844650     1.840688     1.836726     1.832764     1.828802     1.824840
      1.820878     1.816916     1.812954     1.808992     1.805030     1.801068     1.797106     1.793144     1.789182     1.785220
      1.781258     1.777296     1.773334     1.769372     1.765409     1.761447     1.757485     1.753523     1.749561     1.745599
      1.741637     1.737675     1.733713     1.729751     1.725789     1.721827     1.717865     1.713903     1.709941     1.705979
      1.702017     1.698055     1.694093     1.690131     1.686169     1.682207     1.678245     1.674283     1.670321     1.666358
      1.662396     1.658434     1.654472     1.650510     1.646548     1.642586     1.638624     1.634662     1.630700     1.626738
      1.622776     1.618814     1.614852     1.610890     1.606928     1.602966     1.599004     1.595042     1.591080     1.587118
      1.583156     1.579194     1.575232     1.571270     1.567307     1.563345     1.559383     1.555421     1.551459     1.547497
      1.543535     1.539573     1.535611     1.531649     1.527687     1.523725     1.519763     1.515801     1.511839     1.507877
      1.503915     1.499953     1.495991     1.492029     1.488067     1.484105     1.480143     1.476181     1.472219     1.468256
      1.464294     1.460332     1.456370     1.452408     1.448446     1.444484     1.440522     1.436560     1.432598     1.428636
      1.424674     1.420712     1.416750     1.412788     1.408826     1.404864     1.400902     1.396940     1.392978     1.389016
      1.385054     1.381092     1.377130     1.373168     1.369205     1.365243     1.361281     1.357319     1.353357     1.349395
      1.345433     1.341471     1.337509     1.333547     1.329585     1.325623     1.321661     1.317699     1.313737     1.309775
      1.305813     1.301851     1.297889     1.293927     1.289965     1.286003     1.282041     1.278079     1.274117     1.270154
      1.266192     1.262230     1.258268     1.254306     1.250344     1.246382     1.242420     1.238458     1.234496     1.230534
      1.226572     1.222610     1.218648     1.214686     1.210724     1.206762     1.202800     1.198838     1.194876     1.190914
      1.186952     1.182990     1.179028     1.175066     1.171103     1.167141     1.163179     1.159217     1.155255     1.151293
      1.147331     1.143369     1.139407     1.135445     1.131483     1.127521     1.123559     1.119597     1.115635     1.111673
      1.107711     1.103749     1.099787     1.095825     1.091863     1.087901     1.083939     1.079977     1.076015     1.072052
      1.068090     1.064128     1.060166     1.056204     1.052242     1.048280     1.044318     1.040356     1.036394     1.032432
      1.028470     1.024508     1.020546     1.016584     1.012622     1.008660     1.004698     1.000736     0.996774     0.992812
      0.988850     0.984888     0.980926     0.976964     0.973001     0.969039     0.965077     0.961115     0.957153     0.953191
      0.949229     0.945267     0.941305     0.937343     0.933381     0.929419     0.925457     0.921495     0.917533     0.913571
      0.909609     0.905647     0.901685     0.897723     0.893761     0.889799     0.885837     0.881875     0.877913     0.873950
      0.869988     0.866026     0.862064     0.858102     0.854140     0.850178     0.846216     0.842254     0.838292     0.834330
      0.830368     0.826406     0.822444     0.818482     0.814520     0.810558     0.806596     0.802634     0.798672     0.794710
      0.790748     0.786786     0.782824     0.778862     0.774899     0.770937     0.766975     0.763013     0.759051     0.755089
      0.751127     0.747165     0.743203     0.739241     0.735279     0.731317     0.727355     0.723393     0.719431     0.715469
      0.711507     0.707545     0.703583     0.699621     0.695659     0.691697     0.687735     0.683773     0.679811     0.675848
      0.671886     0.667924     0.663962     0.660000     0.656038     0.652076     0.648114     0.644152     0.640190     0.636228
      0.632266     0.628304     0.624342     0.620380     0.616418     0.612456     0.608494     0.604532     0.600570     0.596608
      0.592646     0.588684     0.584722     0.580760     0.576797     0.572835     0.568873     0.564911     0.560949     0.556987
      0.553025     0.549063     0.545101     0.541139     0.537177     0.533215     0.529253     0.525291     0.521329     0.517367
      0.513405     0.509443     0.505481     0.501519
 NY phased data points follow
   4.32577E-01  4.10447E-01  4.29684E-01  4.48122E-01  4.41629E-01  4.15632E-01  4.39890E-01  4.41814E-01  4.57028E-01  4.73000E-01
   4.56574E-01  4.80540E-01  5.23057E-01  5.16343E-01  5.71329E-01  6.11297E-01  6.38585E-01  6.93568E-01  7.67018E-01  7.97062E-01
   8.80013E-01  9.28273E-01  9.92270E-01  1.01903E+00  1.14731E+00  1.19551E+00  1.22144E+00  1.26168E+00  1.30470E+00  1.27311E+00
   1.27263E+00  1.23406E+00  1.16758E+00  1.10368E+00  1.02843E+00  1.00388E+00  9.41914E-01  8.70846E-01  8.11513E-01  8.05959E-01
   7.52362E-01  7.57353E-01  7.44441E-01  6.86816E-01  7.37577E-01  6.92763E-01  7.08799E-01  6.98786E-01  7.15250E-01  6.64312E-01
   7.46592E-01  7.24547E-01  6.98072E-01  7.24989E-01  7.62192E-01  7.50170E-01  7.86641E-01  8.45783E-01  8.14773E-01  8.11195E-01
   8.03324E-01  8.50963E-01  8.41713E-01  8.56166E-01  8.92945E-01  9.15560E-01  9.46745E-01  9.81715E-01  9.97200E-01  9.87153E-01
   1.02658E+00  9.93385E-01  9.43614E-01  9.14680E-01  8.48430E-01  8.65808E-01  8.26746E-01  8.11822E-01  8.16629E-01  7.85974E-01
   7.97131E-01  8.39053E-01  8.04855E-01  8.15722E-01  7.85419E-01  7.53970E-01  7.54895E-01  7.41189E-01  7.33971E-01  7.36963E-01
   7.16471E-01  7.26392E-01  7.50926E-01  7.68853E-01  7.83179E-01  8.22907E-01  8.74712E-01  8.84676E-01  8.72080E-01  8.75457E-01
   8.87152E-01  8.36615E-01  7.84873E-01  7.57593E-01  6.81875E-01  6.67449E-01  6.37418E-01  6.34454E-01  5.97917E-01  6.26299E-01
   6.16220E-01  6.63799E-01  6.93160E-01  7.15803E-01  7.69537E-01  8.33107E-01  9.11887E-01  9.29486E-01  9.93010E-01  1.02019E+00
   1.02108E+00  9.82759E-01  9.69681E-01  9.32944E-01  8.89520E-01  8.58504E-01  7.57655E-01  7.23517E-01  6.84498E-01  6.52620E-01
   6.25286E-01  5.79466E-01  5.59011E-01  5.17031E-01  5.56114E-01  5.46933E-01  5.28634E-01  5.29727E-01  5.05601E-01  4.93718E-01
   4.98966E-01  5.17816E-01  5.46871E-01  5.21905E-01  4.86744E-01  4.95414E-01  5.09023E-01  4.71730E-01  4.94478E-01  4.87207E-01
   4.04432E-01  4.54328E-01  4.63169E-01  4.47441E-01  4.17659E-01  4.04379E-01  4.14168E-01  4.14065E-01  4.08608E-01  3.93920E-01
   4.10729E-01  3.84619E-01  4.03837E-01  3.81413E-01  4.13150E-01  4.04936E-01  4.02494E-01  4.03520E-01  4.26042E-01  3.97786E-01
   4.25755E-01  4.29733E-01  4.24651E-01  4.04345E-01  4.11822E-01  3.89335E-01  4.14153E-01  3.86640E-01  3.39965E-01  3.60869E-01
   3.55928E-01  3.93634E-01  3.71198E-01  4.13985E-01  4.32166E-01  4.24502E-01  4.25112E-01  4.91441E-01  5.04361E-01  5.16094E-01
   5.55510E-01  6.15497E-01  6.17031E-01  6.24460E-01  6.76400E-01  6.54111E-01  7.18094E-01  7.04000E-01  7.05916E-01  7.28912E-01
   7.78016E-01  8.00313E-01  8.60150E-01  9.65903E-01  1.06329E+00  1.16312E+00  1.21216E+00  1.23682E+00  1.19759E+00  1.14427E+00
   1.10445E+00  1.04930E+00  9.24016E-01  8.89958E-01  8.15861E-01  7.82769E-01  7.38819E-01  6.91074E-01  6.61302E-01  6.40232E-01
   6.15282E-01  6.29216E-01  6.20402E-01  6.38153E-01  6.14677E-01  6.41362E-01  6.03733E-01  5.79008E-01  5.63043E-01  5.30508E-01
   5.51701E-01  5.36197E-01  5.48332E-01  5.55595E-01  5.03481E-01  5.65387E-01  5.52681E-01  5.57078E-01  5.92523E-01  6.18155E-01
   6.52377E-01  6.90353E-01  7.21463E-01  7.61699E-01  8.50550E-01  9.03174E-01  9.58465E-01  1.05749E+00  1.21406E+00  1.37184E+00
   1.53586E+00  1.70298E+00  1.81068E+00  1.85432E+00  1.81384E+00  1.74799E+00  1.61822E+00  1.47409E+00  1.34228E+00  1.20585E+00
   1.12212E+00  1.00042E+00  8.99358E-01  8.32654E-01  7.93224E-01  7.50800E-01  6.77997E-01  6.42839E-01  6.36702E-01  5.89429E-01
   5.45459E-01  5.13511E-01  5.28246E-01  4.91246E-01  4.95606E-01  4.77788E-01  4.59374E-01  4.60395E-01  4.75836E-01  4.90241E-01
   4.70440E-01  4.00739E-01  4.16586E-01  4.14426E-01  3.94944E-01  3.95645E-01  3.78472E-01  3.71044E-01  3.87381E-01  4.04271E-01
   3.83408E-01  3.57196E-01  3.12915E-01  3.79311E-01  3.44025E-01  3.32558E-01  3.52022E-01  3.54402E-01  3.36285E-01  3.48288E-01
   3.16875E-01  3.02649E-01  3.11073E-01  3.26842E-01  3.20986E-01  3.13344E-01  3.50114E-01  3.35720E-01  3.33021E-01  3.65382E-01
   3.55804E-01  3.83144E-01  3.93747E-01  3.88828E-01  4.14272E-01  4.17454E-01  3.80366E-01  3.98107E-01  3.90993E-01  3.38022E-01
   3.68180E-01  3.12052E-01  3.46791E-01  3.14692E-01  3.93197E-01  3.81527E-01  3.49592E-01  3.73603E-01  3.49311E-01  3.33584E-01
   2.88638E-01  2.96515E-01  2.71515E-01  2.13287E-01  2.46125E-01  2.38345E-01  2.20261E-01  2.31422E-01  2.39403E-01  2.69650E-01
   2.48462E-01  2.84832E-01  2.56109E-01  3.28589E-01  3.31579E-01  3.40450E-01  3.37927E-01  4.04903E-01  4.44704E-01  4.22038E-01
   4.17830E-01  4.45403E-01  4.23534E-01  4.13550E-01  4.52712E-01  4.53450E-01  4.63601E-01  4.83024E-01  4.79352E-01  5.22716E-01
   5.13926E-01  5.25930E-01  5.49712E-01  5.33574E-01  5.52833E-01  5.44151E-01  5.11705E-01  4.80070E-01  4.72071E-01  4.04234E-01
   4.33396E-01  4.02273E-01  3.87479E-01  3.95213E-01  3.87317E-01  3.44475E-01  3.99099E-01  3.99604E-01  4.23416E-01  3.85255E-01
   3.71386E-01  3.91541E-01  3.94308E-01  4.16746E-01  4.43265E-01  4.52739E-01  4.75892E-01  5.17249E-01  5.41635E-01  5.36997E-01
   5.24925E-01  6.09533E-01  5.91989E-01  5.99904E-01  6.21763E-01  6.47494E-01  6.82806E-01  6.74118E-01  7.01166E-01  7.60720E-01
   7.36924E-01  7.37038E-01  7.43390E-01  7.23505E-01  7.55725E-01  6.89482E-01  6.77771E-01  6.62033E-01  6.31708E-01  6.23985E-01
   5.80926E-01  5.89557E-01  5.73868E-01  5.93848E-01  5.84190E-01  6.13305E-01  6.36427E-01  6.99510E-01  7.79239E-01  8.10867E-01
   8.72422E-01  9.48761E-01  9.86801E-01  1.00298E+00  9.73323E-01  9.37059E-01  8.86542E-01  8.81287E-01  8.20546E-01  7.71083E-01
   7.19067E-01  7.25563E-01  7.00523E-01  6.18978E-01  6.40127E-01  6.59885E-01  7.10172E-01  7.55272E-01  7.62391E-01  7.63901E-01
   7.79105E-01  8.30234E-01  7.93840E-01  7.91309E-01  7.64152E-01  7.48503E-01  7.41529E-01  7.06951E-01  7.25139E-01  6.94756E-01
   6.96099E-01  6.71630E-01  6.50039E-01  6.31900E-01  6.53812E-01  6.36857E-01  6.18884E-01  6.06159E-01  6.32856E-01  6.41953E-01
   6.55367E-01  6.34773E-01  6.66175E-01  6.50945E-01  6.47421E-01  6.41221E-01  6.29615E-01  6.93295E-01  6.75023E-01  6.55481E-01
   6.59650E-01  6.62979E-01  6.37722E-01  6.38980E-01  6.52995E-01  6.41144E-01  6.84840E-01  6.80319E-01  7.07114E-01  7.20670E-01
   7.98373E-01  7.91312E-01  8.76423E-01  8.64736E-01  8.77361E-01  9.07459E-01  9.33544E-01  9.28008E-01  9.42653E-01  9.51399E-01
   9.55122E-01  9.98543E-01  1.03731E+00  1.09981E+00  1.14513E+00  1.17158E+00  1.24173E+00  1.26970E+00  1.32155E+00  1.38866E+00
   1.45703E+00  1.54373E+00  1.60490E+00  1.68296E+00  1.81958E+00  1.96419E+00  2.22300E+00  2.47470E+00  2.71615E+00  2.89434E+00
   2.97917E+00  2.84318E+00  2.65605E+00  2.40303E+00  2.12873E+00  1.82215E+00  1.60581E+00  1.41273E+00  1.23532E+00  1.10277E+00
   1.02388E+00  9.39400E-01  8.36975E-01  8.27634E-01  7.49335E-01  6.96766E-01  6.32179E-01  6.24558E-01  5.26799E-01  5.45978E-01
   4.98797E-01  4.79961E-01  4.55379E-01  4.50109E-01  4.63919E-01  4.26727E-01  4.25546E-01  3.94100E-01  3.98125E-01  3.77831E-01
   3.54801E-01  3.61695E-01  3.69253E-01  3.68275E-01  3.62539E-01  3.50495E-01  3.73016E-01  3.69135E-01  3.36276E-01  3.27984E-01
   3.44890E-01  3.06494E-01  2.99391E-01  2.82346E-01  2.88074E-01  3.02688E-01  3.17400E-01  3.06396E-01  3.18434E-01  3.20849E-01
   2.74941E-01  2.94383E-01  2.90689E-01  2.87890E-01  2.99962E-01  3.13611E-01  2.87878E-01  3.07190E-01  2.82124E-01  2.94099E-01
   2.73421E-01  2.80640E-01  2.51995E-01  2.72504E-01  2.87625E-01  2.71857E-01  3.08845E-01  2.34411E-01  2.78678E-01  2.87909E-01
   2.56419E-01  2.83032E-01  2.77266E-01  2.96344E-01  2.70294E-01  3.05650E-01  2.50620E-01  2.86473E-01  2.55495E-01  2.93875E-01
   2.81096E-01  2.85637E-01  2.49034E-01  3.03313E-01  2.94374E-01  2.94440E-01  3.23891E-01  2.92586E-01  2.85029E-01  3.03617E-01
   2.97176E-01  2.89657E-01  3.35742E-01  3.29763E-01  2.88850E-01  3.07040E-01  3.14084E-01  3.35038E-01  3.06178E-01  2.94001E-01
   3.07358E-01  2.89056E-01  2.90027E-01  3.10876E-01  2.83241E-01  2.96868E-01  2.98052E-01  3.04292E-01  3.09001E-01  3.21771E-01
   2.80550E-01  2.92803E-01  2.98689E-01  3.17129E-01  2.96529E-01  2.70412E-01  2.51818E-01  2.97777E-01  2.94234E-01  3.00244E-01
   2.69389E-01  2.91091E-01  2.68376E-01  2.59599E-01  2.50645E-01  3.08976E-01  3.04038E-01  2.94970E-01  2.99985E-01  3.45981E-01
   3.00796E-01  3.26710E-01  3.40225E-01  3.23470E-01  3.46096E-01  3.38020E-01  3.47941E-01  3.43980E-01  3.61925E-01  3.50666E-01
   3.78722E-01  3.74241E-01  3.70632E-01  4.08117E-01  4.19342E-01  4.09468E-01  4.24737E-01  4.27490E-01  4.12180E-01  4.38942E-01
   4.24240E-01  4.15429E-01  4.11692E-01  3.84667E-01  4.29030E-01  4.13181E-01  4.05630E-01  4.26807E-01  3.93455E-01  3.91930E-01
   3.92050E-01  4.20660E-01  4.03159E-01  4.16955E-01  4.53081E-01  4.39370E-01  4.27751E-01  4.20463E-01  4.34451E-01  4.14002E-01
   4.04833E-01  3.76330E-01  3.59593E-01  3.47089E-01  3.78678E-01  3.55163E-01  3.43870E-01  3.72107E-01  3.66070E-01  3.40908E-01
   3.48800E-01  3.27985E-01  3.40039E-01  3.58074E-01  3.66704E-01  3.34902E-01  3.52536E-01  3.19166E-01  3.15191E-01  3.23584E-01
   3.48670E-01  3.32861E-01  3.38435E-01  3.27066E-01  3.40256E-01  3.33742E-01  2.82689E-01  2.98729E-01  3.10628E-01  3.09215E-01
   3.48723E-01  2.97305E-01  2.78952E-01  3.09961E-01  2.94188E-01  2.89888E-01  2.93117E-01  2.84953E-01  2.67279E-01  2.69656E-01
   2.73024E-01  2.99449E-01  2.57937E-01  2.56924E-01  2.40360E-01  2.48532E-01  2.11443E-01  2.47713E-01  2.34117E-01  2.39698E-01
   2.17003E-01  2.39712E-01  2.00240E-01  2.20870E-01  1.81269E-01  2.01102E-01  2.11332E-01  1.82417E-01  1.83678E-01  2.12374E-01
   1.76609E-01  1.92035E-01  2.36424E-01  2.05063E-01  2.02083E-01  2.02885E-01  1.68831E-01  2.22412E-01  1.97136E-01  2.15872E-01
   2.33850E-01  2.41988E-01  2.26132E-01  2.26718E-01  2.19513E-01  2.43514E-01  2.34595E-01  2.69016E-01  2.71683E-01  2.71679E-01
   2.73017E-01  2.83724E-01  3.21943E-01  2.89990E-01  3.16952E-01  3.29562E-01  2.88909E-01  3.00229E-01  3.64217E-01  3.59201E-01
   3.63089E-01  3.75258E-01  3.85578E-01  4.02309E-01  3.67096E-01  3.87679E-01  4.09756E-01  4.03131E-01  3.88082E-01  4.22468E-01
   4.25716E-01  4.46397E-01  4.12705E-01  4.25711E-01  4.31563E-01  4.23118E-01  4.14946E-01  4.30697E-01  4.28762E-01  4.34547E-01
   4.50691E-01  4.55129E-01  4.12408E-01  3.95883E-01  4.01123E-01  4.13361E-01  4.14292E-01  4.20312E-01  3.73204E-01  3.38979E-01
   3.58853E-01  3.56756E-01  3.13122E-01  3.06546E-01  3.02087E-01  2.80454E-01  2.95238E-01  2.63326E-01  2.53916E-01  2.29847E-01
   2.45794E-01  2.39209E-01  2.19738E-01  2.09038E-01  1.92941E-01  1.74688E-01  1.92459E-01  1.87128E-01  1.63165E-01  1.70653E-01
   1.76925E-01  1.41085E-01  1.48197E-01  1.36025E-01  1.45203E-01  1.12073E-01  1.42377E-01  1.12931E-01  1.44851E-01  1.14103E-01
   1.15465E-01  1.37619E-01  5.65561E-02  8.49363E-02  9.44269E-02  1.00185E-01  9.76932E-02  1.12482E-01  9.76666E-02  9.27929E-02
   6.74631E-02  7.73716E-02  7.66942E-02  5.25378E-02  7.20569E-02  4.96809E-02  6.88667E-02  6.42570E-02  9.38226E-02  5.62746E-02
   6.15080E-02  4.94416E-02  2.67631E-02  9.00467E-02  4.83304E-02  4.53030E-02  7.45903E-02  5.71150E-02  7.50939E-02  6.91662E-02
   8.32117E-02  5.79130E-02  6.91271E-02  7.77939E-02  6.78833E-02  6.16857E-02  7.03474E-02  3.11587E-02  7.09235E-02  4.97441E-02
   6.18058E-02  6.75860E-02  4.97281E-02  7.95197E-02  6.36022E-02  6.99813E-02  7.60039E-02  3.77276E-02  4.85691E-02  5.10438E-02
   4.15520E-02  6.65321E-02  3.64472E-02  5.84514E-02
 NY points of the fit to the data follow
   4.57148E-01  4.49587E-01  4.44172E-01  4.38249E-01  4.39729E-01  4.43190E-01  4.44967E-01  4.48927E-01  4.54683E-01  4.61760E-01
   4.72091E-01  4.82997E-01  4.96045E-01  5.17080E-01  5.48248E-01  5.86830E-01  6.26961E-01  6.66465E-01  7.18846E-01  7.78381E-01
   8.46775E-01  9.33080E-01  1.01651E+00  1.09172E+00  1.16664E+00  1.21723E+00  1.24067E+00  1.26670E+00  1.28990E+00  1.29221E+00
   1.27912E+00  1.24985E+00  1.19542E+00  1.12844E+00  1.06730E+00  9.97453E-01  9.33954E-01  8.88855E-01  8.42607E-01  7.94334E-01
   7.58180E-01  7.29304E-01  7.08773E-01  6.97285E-01  6.87243E-01  6.79506E-01  6.76780E-01  6.79323E-01  6.83259E-01  6.88541E-01
   6.95185E-01  7.00774E-01  7.08247E-01  7.19571E-01  7.34301E-01  7.51017E-01  7.64296E-01  7.74360E-01  7.88237E-01  8.01509E-01
   8.16608E-01  8.39585E-01  8.66652E-01  8.95562E-01  9.22473E-01  9.41126E-01  9.53495E-01  9.66858E-01  9.79251E-01  9.84037E-01
   9.81417E-01  9.73970E-01  9.59071E-01  9.36421E-01  9.10040E-01  8.81097E-01  8.58879E-01  8.39227E-01  8.18058E-01  8.00653E-01
   7.89751E-01  7.84822E-01  7.84836E-01  7.85571E-01  7.83184E-01  7.78277E-01  7.71186E-01  7.62709E-01  7.53360E-01  7.45980E-01
   7.42128E-01  7.42082E-01  7.46930E-01  7.59819E-01  7.82247E-01  8.13572E-01  8.47403E-01  8.75159E-01  8.88956E-01  8.83295E-01
   8.58649E-01  8.19694E-01  7.72849E-01  7.25693E-01  6.84452E-01  6.52462E-01  6.30899E-01  6.20284E-01  6.15761E-01  6.19483E-01
   6.32111E-01  6.52254E-01  6.82219E-01  7.26955E-01  7.79030E-01  8.38145E-01  8.95515E-01  9.37543E-01  9.68321E-01  9.85659E-01
   9.87685E-01  9.77078E-01  9.57480E-01  9.31300E-01  8.96309E-01  8.52609E-01  8.03478E-01  7.56405E-01  7.14147E-01  6.74343E-01
   6.37578E-01  6.10502E-01  5.88532E-01  5.71720E-01  5.62031E-01  5.53690E-01  5.49833E-01  5.45094E-01  5.38138E-01  5.31816E-01
   5.25410E-01  5.19345E-01  5.14286E-01  5.08908E-01  5.01181E-01  4.90884E-01  4.78907E-01  4.66280E-01  4.54637E-01  4.43399E-01
   4.32491E-01  4.24244E-01  4.17810E-01  4.11838E-01  4.07927E-01  4.05001E-01  4.03203E-01  4.02630E-01  4.02037E-01  4.01722E-01
   4.02218E-01  4.03543E-01  4.05166E-01  4.06599E-01  4.07685E-01  4.09121E-01  4.11033E-01  4.11220E-01  4.13270E-01  4.15024E-01
   4.14195E-01  4.13530E-01  4.10704E-01  4.04464E-01  3.98043E-01  3.92681E-01  3.86221E-01  3.81435E-01  3.81355E-01  3.83141E-01
   3.86305E-01  3.94497E-01  4.07551E-01  4.20941E-01  4.36812E-01  4.52403E-01  4.72201E-01  4.92015E-01  5.13331E-01  5.39951E-01
   5.65158E-01  5.91514E-01  6.17123E-01  6.33800E-01  6.44413E-01  6.59914E-01  6.78737E-01  6.94464E-01  7.08989E-01  7.32547E-01
   7.69376E-01  8.13691E-01  8.82067E-01  9.67096E-01  1.05840E+00  1.14672E+00  1.21193E+00  1.23282E+00  1.21231E+00  1.16968E+00
   1.10577E+00  1.02370E+00  9.43056E-01  8.75186E-01  8.13673E-01  7.62919E-01  7.26457E-01  6.96349E-01  6.77306E-01  6.60804E-01
   6.42238E-01  6.21168E-01  6.02400E-01  5.86347E-01  5.74210E-01  5.64305E-01  5.56809E-01  5.51373E-01  5.47528E-01  5.46273E-01
   5.46292E-01  5.47045E-01  5.48844E-01  5.51924E-01  5.56452E-01  5.62635E-01  5.70822E-01  5.81696E-01  5.96344E-01  6.16374E-01
   6.44358E-01  6.83424E-01  7.35450E-01  7.94427E-01  8.51694E-01  9.21458E-01  9.99399E-01  1.08644E+00  1.21424E+00  1.35874E+00
