 LCModel (Version 6.3-0D) Copyright: S.W. Provencher.          Ref.: Magn. Reson. Med. 30:672-679 (1993).                
 S10_PRESS_35
 Data of: Dept of Radiology, The Johns Hopkins University School of Medicine
 17-March-2020  16:36
 32 lines in following concentration table = NCONC+1
    Conc.  %SD /Cr+PCr  Metabolite                                         
    0.518 127%   0.239 Asc                                                 
   12.189  10%   5.618 Asp                                                 
    5.364  15%   2.472 Cr                                                  
    3.294  23%   1.518 GABA                                                
    1.931  23%   0.890 GPC                                                 
    2.477  10%   1.142 GSH                                                 
    5.009  21%   2.308 Gln                                                 
   26.334   5%  12.137 Glu                                                 
   14.741   5%   6.794 Ins                                                 
    0.000 999%   0.000 Lac                                                 
   22.671   3%  10.449 NAA                                                 
    3.220  16%   1.484 NAAG                                                
    0.910  49%   0.419 PCh                                                 
   11.994   8%   5.528 PCr                                                 
    5.341  25%   2.462 PE                                                  
    0.589  17%   0.272 Scyllo                                              
    2.507  34%   1.156 Tau                                                 
    4.032  12%   1.858 -CrCH2                                              
    2.841   4%   1.309 PCh+GPC                                             
   17.358   2%   8.000 Cr+PCr                                              
   25.891   2%  11.933 NAA+NAAG                                            
   31.343   5%  14.445 Glu+Gln                                             
   30.164  20%  13.902 Lip13a                                              
    0.000 999%   0.000 Lip13b                                              
    6.880  10%   3.171 Lip09                                               
   11.185  21%   5.155 MM09                                                
    6.821  17%   3.143 Lip20                                               
   28.483  13%  13.127 MM20                                                
    3.911  46%   1.803 MM12                                                
   14.925  24%   6.879 MM14                                                
    0.000 999%   0.000 MM17                                                
   6 lines in following misc. output table
  FWHM = 0.043 ppm    S/N =  48                                            
  Data shift = 0.005 ppm                                                   
  Ph:  12 deg       6.3 deg/ppm                                            
  alphaB,S = 3.4E-02,   1.0E+02                                            
   26 spline knots.   Ns =10(1)                                            
  ( 7) 5 infls.   ( 3) 1 extrs.                                            
  734 points on ppm-axis = NY
      4.000000     3.995223     3.990446     3.985669     3.980892     3.976115     3.971338     3.966561     3.961784     3.957007
      3.952230     3.947453     3.942677     3.937900     3.933123     3.928346     3.923569     3.918792     3.914015     3.909238
      3.904461     3.899684     3.894907     3.890130     3.885353     3.880576     3.875799     3.871022     3.866245     3.861468
      3.856691     3.851914     3.847137     3.842360     3.837584     3.832807     3.828030     3.823253     3.818476     3.813699
      3.808922     3.804145     3.799368     3.794591     3.789814     3.785037     3.780260     3.775483     3.770706     3.765929
      3.761152     3.756375     3.751598     3.746821     3.742044     3.737267     3.732491     3.727714     3.722937     3.718160
      3.713383     3.708606     3.703829     3.699052     3.694275     3.689498     3.684721     3.679944     3.675167     3.670390
      3.665613     3.660836     3.656059     3.651282     3.646505     3.641728     3.636951     3.632174     3.627398     3.622621
      3.617844     3.613067     3.608290     3.603513     3.598736     3.593959     3.589182     3.584405     3.579628     3.574851
      3.570074     3.565297     3.560520     3.555743     3.550966     3.546189     3.541412     3.536635     3.531858     3.527081
      3.522305     3.517528     3.512751     3.507974     3.503197     3.498420     3.493643     3.488866     3.484089     3.479312
      3.474535     3.469758     3.464981     3.460204     3.455427     3.450650     3.445873     3.441096     3.436319     3.431542
      3.426765     3.421988     3.417212     3.412435     3.407658     3.402881     3.398104     3.393327     3.388550     3.383773
      3.378996     3.374219     3.369442     3.364665     3.359888     3.355111     3.350334     3.345557     3.340780     3.336003
      3.331226     3.326449     3.321672     3.316895     3.312119     3.307342     3.302565     3.297788     3.293011     3.288234
      3.283457     3.278680     3.273903     3.269126     3.264349     3.259572     3.254795     3.250018     3.245241     3.240464
      3.235687     3.230910     3.226133     3.221356     3.216579     3.211802     3.207026     3.202249     3.197472     3.192695
      3.187918     3.183141     3.178364     3.173587     3.168810     3.164033     3.159256     3.154479     3.149702     3.144925
      3.140148     3.135371     3.130594     3.125817     3.121040     3.116263     3.111486     3.106709     3.101933     3.097156
      3.092379     3.087602     3.082825     3.078048     3.073271     3.068494     3.063717     3.058940     3.054163     3.049386
      3.044609     3.039832     3.035055     3.030278     3.025501     3.020724     3.015947     3.011170     3.006393     3.001616
      2.996840     2.992063     2.987286     2.982509     2.977732     2.972955     2.968178     2.963401     2.958624     2.953847
      2.949070     2.944293     2.939516     2.934739     2.929962     2.925185     2.920408     2.915631     2.910854     2.906077
      2.901300     2.896523     2.891747     2.886970     2.882193     2.877416     2.872639     2.867862     2.863085     2.858308
      2.853531     2.848754     2.843977     2.839200     2.834423     2.829646     2.824869     2.820092     2.815315     2.810538
      2.805761     2.800984     2.796207     2.791430     2.786654     2.781877     2.777100     2.772323     2.767546     2.762769
      2.757992     2.753215     2.748438     2.743661     2.738884     2.734107     2.729330     2.724553     2.719776     2.714999
      2.710222     2.705445     2.700668     2.695891     2.691114     2.686337     2.681561     2.676784     2.672007     2.667230
      2.662453     2.657676     2.652899     2.648122     2.643345     2.638568     2.633791     2.629014     2.624237     2.619460
      2.614683     2.609906     2.605129     2.600352     2.595575     2.590798     2.586021     2.581244     2.576468     2.571691
      2.566914     2.562137     2.557360     2.552583     2.547806     2.543029     2.538252     2.533475     2.528698     2.523921
      2.519144     2.514367     2.509590     2.504813     2.500036     2.495259     2.490482     2.485705     2.480928     2.476151
      2.471375     2.466598     2.461821     2.457044     2.452267     2.447490     2.442713     2.437936     2.433159     2.428382
      2.423605     2.418828     2.414051     2.409274     2.404497     2.399720     2.394943     2.390166     2.385389     2.380612
      2.375835     2.371058     2.366282     2.361505     2.356728     2.351951     2.347174     2.342397     2.337620     2.332843
      2.328066     2.323289     2.318512     2.313735     2.308958     2.304181     2.299404     2.294627     2.289850     2.285073
      2.280296     2.275519     2.270742     2.265965     2.261189     2.256412     2.251635     2.246858     2.242081     2.237304
      2.232527     2.227750     2.222973     2.218196     2.213419     2.208642     2.203865     2.199088     2.194311     2.189534
      2.184757     2.179980     2.175203     2.170426     2.165649     2.160872     2.156096     2.151319     2.146542     2.141765
      2.136988     2.132211     2.127434     2.122657     2.117880     2.113103     2.108326     2.103549     2.098772     2.093995
      2.089218     2.084441     2.079664     2.074887     2.070110     2.065333     2.060556     2.055779     2.051003     2.046226
      2.041449     2.036672     2.031895     2.027118     2.022341     2.017564     2.012787     2.008010     2.003233     1.998456
      1.993679     1.988902     1.984125     1.979348     1.974571     1.969794     1.965017     1.960240     1.955463     1.950686
      1.945910     1.941133     1.936356     1.931579     1.926802     1.922025     1.917248     1.912471     1.907694     1.902917
      1.898140     1.893363     1.888586     1.883809     1.879032     1.874255     1.869478     1.864701     1.859924     1.855147
      1.850370     1.845593     1.840816     1.836040     1.831263     1.826486     1.821709     1.816932     1.812155     1.807378
      1.802601     1.797824     1.793047     1.788270     1.783493     1.778716     1.773939     1.769162     1.764385     1.759608
      1.754831     1.750054     1.745277     1.740500     1.735723     1.730947     1.726170     1.721393     1.716616     1.711839
      1.707062     1.702285     1.697508     1.692731     1.687954     1.683177     1.678400     1.673623     1.668846     1.664069
      1.659292     1.654515     1.649738     1.644961     1.640184     1.635407     1.630630     1.625854     1.621077     1.616300
      1.611523     1.606746     1.601969     1.597192     1.592415     1.587638     1.582861     1.578084     1.573307     1.568530
      1.563753     1.558976     1.554199     1.549422     1.544645     1.539868     1.535091     1.530314     1.525537     1.520761
      1.515984     1.511207     1.506430     1.501653     1.496876     1.492099     1.487322     1.482545     1.477768     1.472991
      1.468214     1.463437     1.458660     1.453883     1.449106     1.444329     1.439552     1.434775     1.429998     1.425221
      1.420444     1.415668     1.410891     1.406114     1.401337     1.396560     1.391783     1.387006     1.382229     1.377452
      1.372675     1.367898     1.363121     1.358344     1.353567     1.348790     1.344013     1.339236     1.334459     1.329682
      1.324905     1.320128     1.315351     1.310575     1.305798     1.301021     1.296244     1.291467     1.286690     1.281913
      1.277136     1.272359     1.267582     1.262805     1.258028     1.253251     1.248474     1.243697     1.238920     1.234143
      1.229366     1.224589     1.219812     1.215035     1.210258     1.205482     1.200705     1.195928     1.191151     1.186374
      1.181597     1.176820     1.172043     1.167266     1.162489     1.157712     1.152935     1.148158     1.143381     1.138604
      1.133827     1.129050     1.124273     1.119496     1.114719     1.109942     1.105165     1.100389     1.095612     1.090835
      1.086058     1.081281     1.076504     1.071727     1.066950     1.062173     1.057396     1.052619     1.047842     1.043065
      1.038288     1.033511     1.028734     1.023957     1.019180     1.014403     1.009626     1.004849     1.000072     0.995296
      0.990519     0.985742     0.980965     0.976188     0.971411     0.966634     0.961857     0.957080     0.952303     0.947526
      0.942749     0.937972     0.933195     0.928418     0.923641     0.918864     0.914087     0.909310     0.904533     0.899756
      0.894979     0.890203     0.885426     0.880649     0.875872     0.871095     0.866318     0.861541     0.856764     0.851987
      0.847210     0.842433     0.837656     0.832879     0.828102     0.823325     0.818548     0.813771     0.808994     0.804217
      0.799440     0.794663     0.789886     0.785110     0.780333     0.775556     0.770779     0.766002     0.761225     0.756448
      0.751671     0.746894     0.742117     0.737340     0.732563     0.727786     0.723009     0.718232     0.713455     0.708678
      0.703901     0.699124     0.694347     0.689570     0.684793     0.680017     0.675240     0.670463     0.665686     0.660909
      0.656132     0.651355     0.646578     0.641801     0.637024     0.632247     0.627470     0.622693     0.617916     0.613139
      0.608362     0.603585     0.598808     0.594031     0.589254     0.584477     0.579700     0.574924     0.570147     0.565370
      0.560593     0.555816     0.551039     0.546262     0.541485     0.536708     0.531931     0.527154     0.522377     0.517600
      0.512823     0.508046     0.503269     0.498492
 NY phased data points follow
   1.63898E-01  1.55195E-01  1.78446E-01  2.38837E-01  2.63392E-01  3.11618E-01  2.35222E-01  2.88064E-01  2.82747E-01  3.53613E-01
   3.41850E-01  3.48187E-01  4.65123E-01  5.25553E-01  6.05004E-01  6.22682E-01  7.68175E-01  8.94522E-01  9.96826E-01  1.08454E+00
   1.19836E+00  1.28699E+00  1.42864E+00  1.44036E+00  1.45555E+00  1.49252E+00  1.33800E+00  1.32349E+00  1.21721E+00  1.13131E+00
   1.04601E+00  9.59879E-01  8.59191E-01  8.12592E-01  7.63059E-01  7.39074E-01  6.74179E-01  6.71977E-01  7.02851E-01  6.29159E-01
   6.71584E-01  7.37371E-01  6.82714E-01  7.13785E-01  8.08941E-01  8.05621E-01  7.51733E-01  8.02927E-01  8.48851E-01  9.19883E-01
   9.04036E-01  8.90068E-01  9.40532E-01  1.02208E+00  1.09034E+00  1.14621E+00  1.10789E+00  1.22087E+00  1.16977E+00  1.20258E+00
   1.15157E+00  1.10196E+00  1.02277E+00  1.01985E+00  9.38096E-01  9.89345E-01  1.00302E+00  9.56287E-01  9.89510E-01  9.67931E-01
   9.46698E-01  8.90957E-01  9.16690E-01  8.37171E-01  8.50770E-01  7.93290E-01  8.61459E-01  8.54916E-01  9.23910E-01  9.76657E-01
   1.06118E+00  1.13555E+00  1.06003E+00  1.04447E+00  1.03967E+00  9.62149E-01  9.44940E-01  8.39442E-01  8.18437E-01  7.29114E-01
   7.18008E-01  7.79341E-01  8.03447E-01  8.48148E-01  9.12098E-01  1.06710E+00  1.14727E+00  1.23100E+00  1.34015E+00  1.32420E+00
   1.41741E+00  1.34877E+00  1.23603E+00  1.23373E+00  1.10622E+00  9.60690E-01  8.76552E-01  8.07596E-01  7.67973E-01  6.69639E-01
   5.69785E-01  6.33570E-01  6.57908E-01  6.04852E-01  6.14155E-01  5.94477E-01  5.37503E-01  6.21214E-01  6.18322E-01  5.66546E-01
   5.23371E-01  5.18035E-01  5.01120E-01  5.42305E-01  4.77402E-01  4.92202E-01  5.12575E-01  4.63116E-01  4.89901E-01  4.91391E-01
   4.74845E-01  4.27077E-01  3.74844E-01  4.10303E-01  4.94136E-01  4.47778E-01  4.10183E-01  4.67721E-01  5.39771E-01  4.87394E-01
   5.13708E-01  5.59411E-01  5.31757E-01  5.36562E-01  4.80003E-01  4.80735E-01  4.46321E-01  3.18066E-01  3.88690E-01  3.54224E-01
   3.88108E-01  4.43823E-01  3.93601E-01  4.64958E-01  4.71812E-01  5.68994E-01  6.51513E-01  6.17275E-01  7.04448E-01  7.19882E-01
   7.65718E-01  8.06509E-01  8.65636E-01  8.46136E-01  9.29600E-01  9.36278E-01  1.06313E+00  1.17840E+00  1.39276E+00  1.50005E+00
   1.54696E+00  1.64588E+00  1.64591E+00  1.58542E+00  1.50601E+00  1.40553E+00  1.26202E+00  1.20420E+00  1.02219E+00  9.47821E-01
   8.90008E-01  7.88894E-01  6.84978E-01  5.95881E-01  5.95027E-01  5.20266E-01  4.83202E-01  5.60450E-01  4.68962E-01  4.36208E-01
   4.33570E-01  4.75096E-01  4.67475E-01  5.08439E-01  5.25136E-01  5.65268E-01  5.29481E-01  6.09643E-01  5.89258E-01  7.50627E-01
   8.16291E-01  8.70777E-01  9.85576E-01  1.07522E+00  1.32436E+00  1.61937E+00  1.83724E+00  2.14751E+00  2.38959E+00  2.65323E+00
   2.60178E+00  2.54261E+00  2.43400E+00  2.20185E+00  2.03914E+00  1.78073E+00  1.64165E+00  1.41614E+00  1.22216E+00  1.10688E+00
   9.19621E-01  8.51685E-01  7.35013E-01  6.81029E-01  6.47109E-01  5.72999E-01  5.22593E-01  5.66455E-01  5.15089E-01  4.78828E-01
   5.63694E-01  5.14048E-01  5.31328E-01  4.95145E-01  4.87658E-01  5.11954E-01  4.26210E-01  4.24204E-01  4.03289E-01  3.71975E-01
   3.52698E-01  3.13248E-01  3.12723E-01  3.01682E-01  3.28633E-01  3.22814E-01  3.00907E-01  2.81472E-01  2.67123E-01  3.17260E-01
   2.75080E-01  2.54011E-01  2.38380E-01  3.09510E-01  2.99152E-01  2.74860E-01  2.81525E-01  3.45722E-01  3.30161E-01  4.12397E-01
   3.93914E-01  4.77667E-01  4.86216E-01  3.92641E-01  4.02914E-01  4.00644E-01  3.82183E-01  3.33608E-01  4.23816E-01  4.53825E-01
   4.35117E-01  4.74802E-01  4.58218E-01  4.38756E-01  4.13242E-01  3.52220E-01  2.88722E-01  2.86646E-01  2.81212E-01  2.24332E-01
   2.50069E-01  2.56178E-01  2.28170E-01  2.52699E-01  2.95902E-01  2.86415E-01  3.63786E-01  3.96922E-01  4.30966E-01  4.75948E-01
   4.27281E-01  4.81202E-01  4.68118E-01  5.53129E-01  5.11307E-01  6.05771E-01  5.50688E-01  6.52014E-01  6.93556E-01  6.78602E-01
   7.47039E-01  7.02158E-01  6.54411E-01  5.79945E-01  5.88750E-01  5.40472E-01  4.86849E-01  4.51911E-01  4.07986E-01  3.97616E-01
   4.44669E-01  4.61647E-01  4.55807E-01  4.40056E-01  4.85948E-01  4.67750E-01  4.72284E-01  5.50270E-01  5.80125E-01  6.29436E-01
   6.46484E-01  6.78854E-01  7.61542E-01  7.71250E-01  7.40697E-01  7.48605E-01  7.12386E-01  8.04377E-01  7.75672E-01  8.25307E-01
   8.55833E-01  7.99825E-01  8.72688E-01  8.18343E-01  7.98102E-01  7.55283E-01  7.84683E-01  7.67555E-01  7.58901E-01  7.32413E-01
   8.00870E-01  7.21268E-01  7.64271E-01  8.03845E-01  8.17295E-01  9.63098E-01  1.04159E+00  1.16354E+00  1.27102E+00  1.33005E+00
   1.40180E+00  1.36565E+00  1.38077E+00  1.26648E+00  1.24092E+00  1.15980E+00  1.07721E+00  1.04619E+00  9.44584E-01  9.83978E-01
   9.93220E-01  1.03360E+00  1.03186E+00  1.03576E+00  1.09804E+00  1.13155E+00  1.06468E+00  1.12531E+00  1.10871E+00  1.12010E+00
   1.04042E+00  1.03045E+00  1.04192E+00  9.94738E-01  9.70158E-01  9.31145E-01  9.33003E-01  1.01238E+00  9.17138E-01  9.41248E-01
   9.40934E-01  8.99493E-01  9.62661E-01  1.00005E+00  9.30722E-01  9.35910E-01  9.40408E-01  1.02063E+00  1.00966E+00  1.00385E+00
   9.66485E-01  1.01525E+00  1.00356E+00  9.99372E-01  1.06515E+00  1.01630E+00  1.09533E+00  1.11299E+00  1.19539E+00  1.25131E+00
   1.30684E+00  1.33726E+00  1.34643E+00  1.40007E+00  1.42010E+00  1.45504E+00  1.48314E+00  1.51052E+00  1.57202E+00  1.69920E+00
   1.76795E+00  1.89603E+00  2.00297E+00  2.13914E+00  2.26790E+00  2.36064E+00  2.50352E+00  2.74555E+00  3.07849E+00  3.37462E+00
   3.79156E+00  4.00968E+00  4.14940E+00  4.03050E+00  3.86418E+00  3.53531E+00  3.23969E+00  2.83657E+00  2.47714E+00  2.16493E+00
   1.82333E+00  1.57113E+00  1.31317E+00  1.18989E+00  9.23611E-01  7.73609E-01  6.55861E-01  5.74464E-01  4.38159E-01  4.40830E-01
   3.90828E-01  3.54029E-01  3.00924E-01  2.62163E-01  2.47071E-01  2.39700E-01  2.03958E-01  2.56186E-01  1.66729E-01  1.77070E-01
   1.80184E-01  9.29088E-02  1.54773E-01  6.68062E-02  9.94680E-02  8.28378E-02  4.21267E-02  7.95992E-02  4.43428E-02  1.54895E-02
   2.03654E-02  1.97033E-03 -6.11185E-03 -2.57893E-02 -2.81402E-02 -4.83967E-02 -9.29046E-02 -9.80405E-02 -1.56804E-01 -1.05781E-01
  -9.90134E-02 -1.32642E-01 -1.53665E-01 -1.37806E-01 -1.88475E-01 -1.97572E-01 -1.31834E-01 -1.64137E-01 -1.93316E-01 -1.86447E-01
  -2.37705E-01 -1.95828E-01 -2.35121E-01 -1.70461E-01 -2.18080E-01 -1.65797E-01 -2.42479E-01 -1.69755E-01 -1.59675E-01 -1.81819E-01
  -1.55995E-01 -1.42648E-01 -1.59348E-01 -1.54931E-01 -1.40428E-01 -1.31995E-01 -1.67608E-01 -1.08070E-01 -1.31170E-01 -7.88570E-02
  -1.50019E-01 -1.05828E-01 -1.05001E-01 -9.14275E-02 -1.61224E-01 -1.19131E-01 -1.41205E-01 -1.18155E-01 -7.61908E-02 -8.27632E-02
  -1.07067E-01 -7.98490E-02 -1.02706E-01 -7.27887E-02 -9.80991E-02 -4.49733E-02 -1.01980E-01 -7.97593E-02 -2.15692E-02 -4.50224E-02
   2.62373E-02  2.49899E-02  3.30846E-02 -1.57112E-02 -2.18975E-02  9.30303E-02  6.54946E-02  1.16335E-01  4.49137E-02  5.11781E-02
   9.82668E-02  1.35653E-01  1.44561E-01  1.13865E-01  1.87240E-01  1.30081E-01  1.95993E-01  2.63066E-01  1.96080E-01  2.42324E-01
   2.46938E-01  2.69778E-01  2.52408E-01  2.58771E-01  3.08562E-01  2.80281E-01  2.63917E-01  2.73904E-01  2.28254E-01  2.61989E-01
   2.57478E-01  1.95912E-01  1.93345E-01  2.28397E-01  2.91901E-01  3.52053E-01  2.65974E-01  2.70194E-01  2.95980E-01  2.86740E-01
   2.29719E-01  2.63704E-01  2.99994E-01  2.47735E-01  2.26836E-01  2.34463E-01  2.93108E-01  2.01108E-01  2.25679E-01  2.04617E-01
   2.37518E-01  2.34198E-01  2.06991E-01  2.53179E-01  2.50258E-01  1.86825E-01  2.17516E-01  2.04482E-01  1.98764E-01  2.38969E-01
   2.09894E-01  2.17091E-01  1.48414E-01  1.58670E-01  1.85603E-01  2.41128E-01  1.53790E-01  1.30137E-01  1.29048E-01  1.56185E-01
   1.77993E-01  1.43653E-01  1.32108E-01  1.32943E-01  1.12616E-01  1.30161E-01  6.22150E-02  1.64403E-01  6.44468E-02  3.46287E-02
   8.18801E-02  2.98794E-02  1.10790E-02  4.82726E-02  3.99107E-02 -9.82392E-03  3.39025E-02  3.99555E-02  5.43952E-02 -1.05465E-02
   2.63721E-02  7.24878E-02  8.40301E-02  1.00303E-01  4.68207E-02  2.99806E-02  6.71089E-03  4.19710E-02  1.59344E-02  8.45268E-02
   3.50851E-02  9.07943E-02  9.93158E-02  1.02645E-01  7.21827E-02  1.54523E-01  1.23231E-01  1.52664E-01  1.38317E-01  1.20594E-01
   1.72613E-01  1.41873E-01  1.65494E-01  1.80522E-01  1.15352E-01  1.39298E-01  1.69961E-01  1.22337E-01  1.52570E-01  2.24718E-01
   2.61785E-01  2.20818E-01  2.11205E-01  2.58245E-01  2.66298E-01  2.74714E-01  2.92656E-01  2.80316E-01  3.17565E-01  2.68945E-01
   3.07328E-01  3.57284E-01  3.47646E-01  3.70539E-01  3.54817E-01  3.31345E-01  3.96147E-01  3.62359E-01  3.22393E-01  3.72312E-01
   3.47650E-01  3.18530E-01  2.55868E-01  3.12143E-01  2.81699E-01  2.48861E-01  1.83585E-01  1.87928E-01  1.91032E-01  1.61054E-01
   1.31903E-01  8.28541E-02  1.47846E-01  9.93715E-02  4.73327E-02 -1.27465E-02 -5.07762E-02  1.62432E-02 -4.60495E-02 -6.39434E-02
  -6.75252E-02 -6.72750E-02 -5.22208E-02 -1.00368E-01 -9.41784E-02 -7.80331E-02 -1.55104E-01 -1.28018E-01 -7.80798E-02 -7.26289E-02
  -1.37299E-01 -1.35297E-01 -1.54702E-01 -1.83114E-01 -1.60779E-01 -1.58622E-01 -1.69772E-01 -1.48738E-01 -1.26353E-01 -1.87976E-01
  -2.14948E-01 -1.57708E-01 -1.22358E-01 -1.63213E-01 -1.57570E-01 -1.26720E-01 -8.99300E-02 -1.37385E-01 -1.16463E-01 -1.55667E-01
  -1.88223E-01 -1.32377E-01 -1.71685E-01 -1.17671E-01 -1.40206E-01 -1.20228E-01 -2.02030E-01 -1.39979E-01 -1.58346E-01 -1.94900E-01
  -1.64109E-01 -1.29054E-01 -1.81774E-01 -1.41733E-01 -1.41387E-01 -2.10425E-01 -1.42596E-01 -1.28842E-01 -1.88914E-01 -1.34128E-01
  -1.90119E-01 -1.50236E-01 -1.45776E-01 -1.20568E-01
 NY points of the fit to the data follow
   2.67053E-01  2.55960E-01  2.49470E-01  2.46516E-01  2.45449E-01  2.46828E-01  2.52310E-01  2.61823E-01  2.75926E-01  3.00310E-01
   3.43495E-01  4.02945E-01  4.61684E-01  5.11151E-01  5.62565E-01  6.35094E-01  7.38413E-01  8.64135E-01  9.94273E-01  1.11610E+00
   1.22462E+00  1.31725E+00  1.39077E+00  1.44057E+00  1.46030E+00  1.44517E+00  1.39671E+00  1.32426E+00  1.24117E+00  1.15670E+00
   1.07150E+00  9.82422E-01  8.92309E-01  8.10254E-01  7.42061E-01  6.88734E-01  6.49224E-01  6.23675E-01  6.14274E-01  6.20569E-01
   6.36663E-01  6.56160E-01  6.77283E-01  7.01952E-01  7.31832E-01  7.64587E-01  7.94483E-01  8.19518E-01  8.43786E-01  8.72297E-01
   9.07322E-01  9.48567E-01  9.93768E-01  1.04033E+00  1.08596E+00  1.12818E+00  1.16305E+00  1.18495E+00  1.18961E+00  1.17709E+00
   1.15131E+00  1.11783E+00  1.08203E+00  1.04762E+00  1.01644E+00  9.89021E-01  9.65626E-01  9.45595E-01  9.26720E-01  9.07483E-01
   8.88624E-01  8.71641E-01  8.57516E-01  8.47490E-01  8.44092E-01  8.52492E-01  8.78806E-01  9.24923E-01  9.84413E-01  1.04342E+00
   1.08626E+00  1.10202E+00  1.08764E+00  1.04724E+00  9.89697E-01  9.25900E-01  8.65452E-01  8.12756E-01  7.68327E-01  7.35935E-01
   7.23473E-01  7.38619E-01  7.85158E-01  8.60509E-01  9.54564E-01  1.05327E+00  1.14435E+00  1.21934E+00  1.27306E+00  1.30238E+00
   1.30552E+00  1.28265E+00  1.23661E+00  1.17257E+00  1.09696E+00  1.01614E+00  9.35361E-01  8.59602E-01  7.94617E-01  7.44129E-01
   7.07457E-01  6.81698E-01  6.63737E-01  6.50838E-01  6.41131E-01  6.33435E-01  6.26174E-01  6.17206E-01  6.04809E-01  5.88065E-01
   5.67572E-01  5.45653E-01  5.24925E-01  5.06948E-01  4.92148E-01  4.80283E-01  4.70616E-01  4.61961E-01  4.52997E-01  4.43310E-01
   4.34247E-01  4.28313E-01  4.27565E-01  4.32102E-01  4.39388E-01  4.47144E-01  4.56020E-01  4.67838E-01  4.83343E-01  5.00867E-01
   5.16639E-01  5.26121E-01  5.25681E-01  5.14196E-01  4.93512E-01  4.67549E-01  4.40496E-01  4.15747E-01  3.96688E-01  3.87200E-01
   3.89091E-01  4.00574E-01  4.19686E-01  4.46109E-01  4.81040E-01  5.25005E-01  5.75090E-01  6.25846E-01  6.72864E-01  7.15674E-01
   7.57843E-01  8.01998E-01  8.43640E-01  8.78180E-01  9.13963E-01  9.70497E-01  1.06371E+00  1.19365E+00  1.34355E+00  1.48615E+00
   1.59320E+00  1.64647E+00  1.64275E+00  1.59074E+00  1.50471E+00  1.39824E+00  1.28210E+00  1.16525E+00  1.05508E+00  9.55655E-01
   8.65916E-01  7.82110E-01  7.03497E-01  6.34752E-01  5.80300E-01  5.40062E-01  5.11465E-01  4.91920E-01  4.79219E-01  4.71242E-01
   4.67172E-01  4.68033E-01  4.74870E-01  4.87584E-01  5.05334E-01  5.27637E-01  5.55560E-01  5.92687E-01  6.45000E-01  7.15793E-01
   7.96989E-01  8.82547E-01  9.86624E-01  1.13159E+00  1.33207E+00  1.58693E+00  1.87537E+00  2.16009E+00  2.39780E+00  2.55305E+00
   2.60821E+00  2.56493E+00  2.43900E+00  2.25405E+00  2.03615E+00  1.80938E+00  1.59255E+00  1.39653E+00  1.22311E+00  1.06849E+00
   9.31072E-01  8.14909E-01  7.21992E-01  6.50053E-01  5.97356E-01  5.60561E-01  5.35629E-01  5.20422E-01  5.13165E-01  5.10783E-01
   5.09301E-01  5.05239E-01  4.96156E-01  4.80930E-01  4.61002E-01  4.40038E-01  4.21757E-01  4.07808E-01  3.97487E-01  3.88868E-01
   3.80096E-01  3.70034E-01  3.58095E-01  3.44331E-01  3.30014E-01  3.17067E-01  3.06855E-01  2.99521E-01  2.94564E-01  2.91666E-01
   2.90552E-01  2.91062E-01  2.93819E-01  2.99510E-01  3.06972E-01  3.15853E-01  3.29320E-01  3.50405E-01  3.78265E-01  4.08472E-01
   4.35287E-01  4.51857E-01  4.52797E-01  4.40701E-01  4.25137E-01  4.16696E-01  4.21706E-01  4.39290E-01  4.62446E-01  4.81609E-01
   4.88611E-01  4.79261E-01  4.53717E-01  4.15649E-01  3.71269E-01  3.27402E-01  2.88713E-01  2.57500E-01  2.34283E-01  2.17496E-01
   2.04892E-01  1.96807E-01  1.98383E-01  2.15325E-01  2.48810E-01  2.95760E-01  3.49953E-01  4.02161E-01  4.42973E-01  4.68931E-01
   4.84560E-01  4.98187E-01  5.15928E-01  5.38620E-01  5.63947E-01  5.89357E-01  6.12002E-01  6.28852E-01  6.38715E-01  6.42103E-01
   6.39205E-01  6.29124E-01  6.10979E-01  5.85114E-01  5.53641E-01  5.19637E-01  4.86672E-01  4.57989E-01  4.35847E-01  4.21823E-01
   4.16677E-01  4.20137E-01  4.29600E-01  4.41106E-01  4.53811E-01  4.69720E-01  4.91095E-01  5.19087E-01  5.52962E-01  5.90402E-01
   6.28857E-01  6.66440E-01  7.00820E-01  7.29099E-01  7.51587E-01  7.72189E-01  7.94311E-01  8.17543E-01  8.39241E-01  8.58514E-01
   8.75038E-01  8.85650E-01  8.86819E-01  8.79207E-01  8.66414E-01  8.51125E-01  8.34971E-01  8.19636E-01  8.05644E-01  7.91202E-01
   7.76223E-01  7.66178E-01  7.68394E-01  7.88671E-01  8.33911E-01  9.09259E-01  1.01199E+00  1.12973E+00  1.24408E+00  1.33601E+00
   1.39084E+00  1.40285E+00  1.37594E+00  1.31863E+00  1.24064E+00  1.15262E+00  1.06625E+00  9.93935E-01  9.46371E-01  9.29855E-01
   9.43520E-01  9.77964E-01  1.01969E+00  1.05809E+00  1.08721E+00  1.10332E+00  1.10484E+00  1.09283E+00  1.07076E+00  1.04394E+00
   1.01767E+00  9.95208E-01  9.77128E-01  9.62808E-01  9.51734E-01  9.43147E-01  9.36301E-01  9.30928E-01  9.26896E-01  9.24350E-01
   9.23843E-01  9.26060E-01  9.31731E-01  9.41976E-01  9.57123E-01  9.75584E-01  9.95023E-01  1.01339E+00  1.02911E+00  1.04095E+00
   1.04793E+00  1.05088E+00  1.05339E+00  1.06002E+00  1.07386E+00  1.09617E+00  1.12666E+00  1.16367E+00  1.20497E+00  1.24775E+00
   1.28797E+00  1.32199E+00  1.34959E+00  1.37425E+00  1.40059E+00  1.43053E+00  1.46322E+00  1.50125E+00  1.55218E+00  1.62438E+00
   1.72306E+00  1.84938E+00  2.00084E+00  2.15853E+00  2.28678E+00  2.38866E+00  2.52010E+00  2.73866E+00  3.05427E+00  3.42168E+00
   3.76617E+00  4.01514E+00  4.11883E+00  4.06092E+00  3.85964E+00  3.55673E+00  3.19954E+00  2.82668E+00  2.46494E+00  2.13350E+00
   1.84313E+00  1.59106E+00  1.36215E+00  1.14373E+00  9.43743E-01  7.80954E-01  6.57129E-01  5.62751E-01  4.89598E-01  4.32144E-01
   3.86396E-01  3.49222E-01  3.18413E-01  2.92809E-01  2.71433E-01  2.52772E-01  2.34899E-01  2.16071E-01  1.95333E-01  1.72570E-01
   1.48314E-01  1.23466E-01  9.90515E-02  7.58802E-02  5.44914E-02  3.54971E-02  1.95293E-02  6.78019E-03 -3.11270E-03 -1.08631E-02
  -1.73619E-02 -2.34897E-02 -2.99929E-02 -3.74450E-02 -4.59973E-02 -5.53908E-02 -6.51862E-02 -7.48775E-02 -8.40534E-02 -9.24773E-02
  -1.00086E-01 -1.07019E-01 -1.13537E-01 -1.19863E-01 -1.26017E-01 -1.31900E-01 -1.37520E-01 -1.42957E-01 -1.48213E-01 -1.53165E-01
  -1.57641E-01 -1.61517E-01 -1.64753E-01 -1.67341E-01 -1.69309E-01 -1.70780E-01 -1.71878E-01 -1.72670E-01 -1.73202E-01 -1.73501E-01
  -1.73581E-01 -1.73433E-01 -1.73026E-01 -1.72320E-01 -1.71293E-01 -1.69954E-01 -1.68311E-01 -1.66332E-01 -1.63973E-01 -1.61208E-01
  -1.58028E-01 -1.54428E-01 -1.50406E-01 -1.45953E-01 -1.41066E-01 -1.35740E-01 -1.29970E-01 -1.23753E-01 -1.17085E-01 -1.09967E-01
  -1.02399E-01 -9.43867E-02 -8.59304E-02 -7.70317E-02 -6.76951E-02 -5.79291E-02 -4.77476E-02 -3.71692E-02 -2.62169E-02 -1.49179E-02
  -3.30266E-03  8.59264E-03  2.07306E-02  3.30670E-02  4.55535E-02  5.81385E-02  7.07671E-02  8.33822E-02  9.59249E-02  1.08337E-01
   1.20557E-01  1.32529E-01  1.44196E-01  1.55504E-01  1.66401E-01  1.76842E-01  1.86785E-01  1.96193E-01  2.05035E-01  2.13288E-01
   2.20936E-01  2.27966E-01  2.34377E-01  2.40162E-01  2.45331E-01  2.49895E-01  2.53873E-01  2.57287E-01  2.60165E-01  2.62536E-01
