 LCModel (Version 6.3-0D) Copyright: S.W. Provencher.          Ref.: Magn. Reson. Med. 30:672-679 (1993).                
 S08_PRESS_35
 Data of: Dept of Radiology, The Johns Hopkins University School of Medicine
 17-March-2020  16:34
 32 lines in following concentration table = NCONC+1
    Conc.  %SD /Cr+PCr  Metabolite                                         
    1.923  40%   0.806 Asc                                                 
    9.715  15%   4.070 Asp                                                 
    4.193  23%   1.757 Cr                                                  
    2.644  35%   1.108 GABA                                                
    2.927  19%   1.227 GPC                                                 
    2.666  12%   1.117 GSH                                                 
    4.741  27%   1.986 Gln                                                 
   27.041   5%  11.330 Glu                                                 
   16.549   5%   6.934 Ins                                                 
    0.000 999%   0.000 Lac                                                 
   24.555   3%  10.288 NAA                                                 
    1.740  39%   0.729 NAAG                                                
    0.907  60%   0.380 PCh                                                 
   14.901   7%   6.243 PCr                                                 
    3.399  48%   1.424 PE                                                  
    0.733  17%   0.307 Scyllo                                              
    2.804  37%   1.175 Tau                                                 
    6.094  10%   2.553 -CrCH2                                              
    3.835   4%   1.607 PCh+GPC                                             
   19.093   2%   8.000 Cr+PCr                                              
   26.295   2%  11.017 NAA+NAAG                                            
   31.782   6%  13.316 Glu+Gln                                             
    0.000 999%   0.000 Lip13a                                              
    4.509  42%   1.889 Lip13b                                              
    0.000 999%   0.000 Lip09                                               
   16.271  14%   6.818 MM09                                                
    6.531  20%   2.736 Lip20                                               
   22.832  18%   9.566 MM20                                                
    9.080  23%   3.804 MM12                                                
    7.350  43%   3.079 MM14                                                
    7.050  32%   2.954 MM17                                                
   6 lines in following misc. output table
  FWHM = 0.043 ppm    S/N =  42                                            
  Data shift = 0.005 ppm                                                   
  Ph:   4 deg       3.4 deg/ppm                                            
  alphaB,S = 3.0E-02,   5.1E+01                                            
   26 spline knots.   Ns =11(1)                                            
  (11) 4 infls.   ( 1) 1 extrs.                                            
  734 points on ppm-axis = NY
      4.000000     3.995223     3.990446     3.985669     3.980892     3.976115     3.971338     3.966561     3.961784     3.957007
      3.952230     3.947453     3.942677     3.937900     3.933123     3.928346     3.923569     3.918792     3.914015     3.909238
      3.904461     3.899684     3.894907     3.890130     3.885353     3.880576     3.875799     3.871022     3.866245     3.861468
      3.856691     3.851914     3.847137     3.842360     3.837584     3.832807     3.828030     3.823253     3.818476     3.813699
      3.808922     3.804145     3.799368     3.794591     3.789814     3.785037     3.780260     3.775483     3.770706     3.765929
      3.761152     3.756375     3.751598     3.746821     3.742044     3.737267     3.732491     3.727714     3.722937     3.718160
      3.713383     3.708606     3.703829     3.699052     3.694275     3.689498     3.684721     3.679944     3.675167     3.670390
      3.665613     3.660836     3.656059     3.651282     3.646505     3.641728     3.636951     3.632174     3.627398     3.622621
      3.617844     3.613067     3.608290     3.603513     3.598736     3.593959     3.589182     3.584405     3.579628     3.574851
      3.570074     3.565297     3.560520     3.555743     3.550966     3.546189     3.541412     3.536635     3.531858     3.527081
      3.522305     3.517528     3.512751     3.507974     3.503197     3.498420     3.493643     3.488866     3.484089     3.479312
      3.474535     3.469758     3.464981     3.460204     3.455427     3.450650     3.445873     3.441096     3.436319     3.431542
      3.426765     3.421988     3.417212     3.412435     3.407658     3.402881     3.398104     3.393327     3.388550     3.383773
      3.378996     3.374219     3.369442     3.364665     3.359888     3.355111     3.350334     3.345557     3.340780     3.336003
      3.331226     3.326449     3.321672     3.316895     3.312119     3.307342     3.302565     3.297788     3.293011     3.288234
      3.283457     3.278680     3.273903     3.269126     3.264349     3.259572     3.254795     3.250018     3.245241     3.240464
      3.235687     3.230910     3.226133     3.221356     3.216579     3.211802     3.207026     3.202249     3.197472     3.192695
      3.187918     3.183141     3.178364     3.173587     3.168810     3.164033     3.159256     3.154479     3.149702     3.144925
      3.140148     3.135371     3.130594     3.125817     3.121040     3.116263     3.111486     3.106709     3.101933     3.097156
      3.092379     3.087602     3.082825     3.078048     3.073271     3.068494     3.063717     3.058940     3.054163     3.049386
      3.044609     3.039832     3.035055     3.030278     3.025501     3.020724     3.015947     3.011170     3.006393     3.001616
      2.996840     2.992063     2.987286     2.982509     2.977732     2.972955     2.968178     2.963401     2.958624     2.953847
      2.949070     2.944293     2.939516     2.934739     2.929962     2.925185     2.920408     2.915631     2.910854     2.906077
      2.901300     2.896523     2.891747     2.886970     2.882193     2.877416     2.872639     2.867862     2.863085     2.858308
      2.853531     2.848754     2.843977     2.839200     2.834423     2.829646     2.824869     2.820092     2.815315     2.810538
      2.805761     2.800984     2.796207     2.791430     2.786654     2.781877     2.777100     2.772323     2.767546     2.762769
      2.757992     2.753215     2.748438     2.743661     2.738884     2.734107     2.729330     2.724553     2.719776     2.714999
      2.710222     2.705445     2.700668     2.695891     2.691114     2.686337     2.681561     2.676784     2.672007     2.667230
      2.662453     2.657676     2.652899     2.648122     2.643345     2.638568     2.633791     2.629014     2.624237     2.619460
      2.614683     2.609906     2.605129     2.600352     2.595575     2.590798     2.586021     2.581244     2.576468     2.571691
      2.566914     2.562137     2.557360     2.552583     2.547806     2.543029     2.538252     2.533475     2.528698     2.523921
      2.519144     2.514367     2.509590     2.504813     2.500036     2.495259     2.490482     2.485705     2.480928     2.476151
      2.471375     2.466598     2.461821     2.457044     2.452267     2.447490     2.442713     2.437936     2.433159     2.428382
      2.423605     2.418828     2.414051     2.409274     2.404497     2.399720     2.394943     2.390166     2.385389     2.380612
      2.375835     2.371058     2.366282     2.361505     2.356728     2.351951     2.347174     2.342397     2.337620     2.332843
      2.328066     2.323289     2.318512     2.313735     2.308958     2.304181     2.299404     2.294627     2.289850     2.285073
      2.280296     2.275519     2.270742     2.265965     2.261189     2.256412     2.251635     2.246858     2.242081     2.237304
      2.232527     2.227750     2.222973     2.218196     2.213419     2.208642     2.203865     2.199088     2.194311     2.189534
      2.184757     2.179980     2.175203     2.170426     2.165649     2.160872     2.156096     2.151319     2.146542     2.141765
      2.136988     2.132211     2.127434     2.122657     2.117880     2.113103     2.108326     2.103549     2.098772     2.093995
      2.089218     2.084441     2.079664     2.074887     2.070110     2.065333     2.060556     2.055779     2.051003     2.046226
      2.041449     2.036672     2.031895     2.027118     2.022341     2.017564     2.012787     2.008010     2.003233     1.998456
      1.993679     1.988902     1.984125     1.979348     1.974571     1.969794     1.965017     1.960240     1.955463     1.950686
      1.945910     1.941133     1.936356     1.931579     1.926802     1.922025     1.917248     1.912471     1.907694     1.902917
      1.898140     1.893363     1.888586     1.883809     1.879032     1.874255     1.869478     1.864701     1.859924     1.855147
      1.850370     1.845593     1.840816     1.836040     1.831263     1.826486     1.821709     1.816932     1.812155     1.807378
      1.802601     1.797824     1.793047     1.788270     1.783493     1.778716     1.773939     1.769162     1.764385     1.759608
      1.754831     1.750054     1.745277     1.740500     1.735723     1.730947     1.726170     1.721393     1.716616     1.711839
      1.707062     1.702285     1.697508     1.692731     1.687954     1.683177     1.678400     1.673623     1.668846     1.664069
      1.659292     1.654515     1.649738     1.644961     1.640184     1.635407     1.630630     1.625854     1.621077     1.616300
      1.611523     1.606746     1.601969     1.597192     1.592415     1.587638     1.582861     1.578084     1.573307     1.568530
      1.563753     1.558976     1.554199     1.549422     1.544645     1.539868     1.535091     1.530314     1.525537     1.520761
      1.515984     1.511207     1.506430     1.501653     1.496876     1.492099     1.487322     1.482545     1.477768     1.472991
      1.468214     1.463437     1.458660     1.453883     1.449106     1.444329     1.439552     1.434775     1.429998     1.425221
      1.420444     1.415668     1.410891     1.406114     1.401337     1.396560     1.391783     1.387006     1.382229     1.377452
      1.372675     1.367898     1.363121     1.358344     1.353567     1.348790     1.344013     1.339236     1.334459     1.329682
      1.324905     1.320128     1.315351     1.310575     1.305798     1.301021     1.296244     1.291467     1.286690     1.281913
      1.277136     1.272359     1.267582     1.262805     1.258028     1.253251     1.248474     1.243697     1.238920     1.234143
      1.229366     1.224589     1.219812     1.215035     1.210258     1.205482     1.200705     1.195928     1.191151     1.186374
      1.181597     1.176820     1.172043     1.167266     1.162489     1.157712     1.152935     1.148158     1.143381     1.138604
      1.133827     1.129050     1.124273     1.119496     1.114719     1.109942     1.105165     1.100389     1.095612     1.090835
      1.086058     1.081281     1.076504     1.071727     1.066950     1.062173     1.057396     1.052619     1.047842     1.043065
      1.038288     1.033511     1.028734     1.023957     1.019180     1.014403     1.009626     1.004849     1.000072     0.995296
      0.990519     0.985742     0.980965     0.976188     0.971411     0.966634     0.961857     0.957080     0.952303     0.947526
      0.942749     0.937972     0.933195     0.928418     0.923641     0.918864     0.914087     0.909310     0.904533     0.899756
      0.894979     0.890203     0.885426     0.880649     0.875872     0.871095     0.866318     0.861541     0.856764     0.851987
      0.847210     0.842433     0.837656     0.832879     0.828102     0.823325     0.818548     0.813771     0.808994     0.804217
      0.799440     0.794663     0.789886     0.785110     0.780333     0.775556     0.770779     0.766002     0.761225     0.756448
      0.751671     0.746894     0.742117     0.737340     0.732563     0.727786     0.723009     0.718232     0.713455     0.708678
      0.703901     0.699124     0.694347     0.689570     0.684793     0.680017     0.675240     0.670463     0.665686     0.660909
      0.656132     0.651355     0.646578     0.641801     0.637024     0.632247     0.627470     0.622693     0.617916     0.613139
      0.608362     0.603585     0.598808     0.594031     0.589254     0.584477     0.579700     0.574924     0.570147     0.565370
      0.560593     0.555816     0.551039     0.546262     0.541485     0.536708     0.531931     0.527154     0.522377     0.517600
      0.512823     0.508046     0.503269     0.498492
 NY phased data points follow
   1.73853E-01  2.12424E-01  2.11443E-01  2.26291E-01  2.54751E-01  2.33093E-01  2.65627E-01  3.14072E-01  2.69702E-01  3.31831E-01
   3.63965E-01  4.27779E-01  4.66997E-01  4.98336E-01  5.37337E-01  6.19091E-01  7.60797E-01  8.45612E-01  1.05236E+00  1.09207E+00
   1.16035E+00  1.30472E+00  1.40806E+00  1.45952E+00  1.44470E+00  1.45392E+00  1.32907E+00  1.32376E+00  1.26532E+00  1.15644E+00
   1.04038E+00  1.02209E+00  9.19014E-01  8.40765E-01  8.10170E-01  7.58651E-01  7.05473E-01  7.29126E-01  7.40808E-01  7.06350E-01
   8.00836E-01  7.00744E-01  7.85978E-01  7.85055E-01  7.94589E-01  8.26559E-01  8.40117E-01  8.83006E-01  8.67999E-01  9.78689E-01
   9.86065E-01  1.00399E+00  9.93176E-01  1.13405E+00  1.13595E+00  1.12001E+00  1.23836E+00  1.24422E+00  1.24602E+00  1.21499E+00
   1.18587E+00  1.17203E+00  1.11374E+00  1.14398E+00  1.05285E+00  1.05520E+00  1.09587E+00  1.12855E+00  1.07207E+00  1.11607E+00
   1.11982E+00  9.65786E-01  9.88245E-01  9.78591E-01  9.17680E-01  9.66309E-01  9.40843E-01  1.00746E+00  9.53560E-01  1.02882E+00
   1.09840E+00  1.14041E+00  1.18622E+00  1.13238E+00  1.13721E+00  1.02494E+00  9.51127E-01  9.22040E-01  9.01298E-01  8.38693E-01
   7.97706E-01  7.73091E-01  8.68731E-01  8.82426E-01  9.67088E-01  1.09498E+00  1.22656E+00  1.25997E+00  1.31188E+00  1.38681E+00
   1.44743E+00  1.36409E+00  1.33662E+00  1.25561E+00  1.21064E+00  1.02005E+00  9.41072E-01  8.31470E-01  7.23428E-01  6.78657E-01
   6.54340E-01  6.49916E-01  6.42151E-01  5.90423E-01  6.22426E-01  5.44804E-01  5.37755E-01  5.75835E-01  4.99127E-01  5.55079E-01
   4.95747E-01  5.67110E-01  5.38572E-01  4.89750E-01  5.37856E-01  4.91253E-01  4.71362E-01  4.18580E-01  4.66903E-01  4.37675E-01
   4.13859E-01  3.87675E-01  3.79861E-01  4.11289E-01  3.92754E-01  3.70533E-01  4.35058E-01  4.27742E-01  4.17456E-01  4.15633E-01
   4.66997E-01  5.04679E-01  4.74820E-01  4.53061E-01  4.57637E-01  4.52410E-01  4.75426E-01  4.88833E-01  3.98791E-01  3.58188E-01
   4.65363E-01  4.16035E-01  4.38764E-01  4.78946E-01  4.84302E-01  5.43380E-01  5.84207E-01  6.70554E-01  7.49386E-01  7.58108E-01
   8.32617E-01  8.54745E-01  8.93821E-01  9.28984E-01  1.02309E+00  1.17617E+00  1.33019E+00  1.37940E+00  1.51273E+00  1.62280E+00
   1.74903E+00  1.90807E+00  1.89576E+00  1.81630E+00  1.71839E+00  1.63595E+00  1.45637E+00  1.31112E+00  1.13893E+00  1.07030E+00
   8.98530E-01  8.28694E-01  6.89206E-01  6.49806E-01  5.69438E-01  5.19088E-01  5.15869E-01  5.60537E-01  4.62953E-01  5.39415E-01
   4.51253E-01  4.10661E-01  4.63046E-01  5.00977E-01  5.54303E-01  5.30585E-01  5.25858E-01  6.37763E-01  6.79994E-01  7.66871E-01
   8.79063E-01  9.56170E-01  1.10052E+00  1.24452E+00  1.42430E+00  1.73836E+00  1.93214E+00  2.24375E+00  2.49297E+00  2.63824E+00
   2.80953E+00  2.76066E+00  2.54864E+00  2.43856E+00  2.18562E+00  1.94201E+00  1.63346E+00  1.45643E+00  1.30204E+00  1.18309E+00
   1.05711E+00  8.70525E-01  8.45737E-01  7.34787E-01  6.33376E-01  6.16903E-01  5.46763E-01  5.56736E-01  5.95849E-01  5.25933E-01
   4.98079E-01  5.37389E-01  5.60657E-01  4.77680E-01  4.70230E-01  4.43838E-01  4.89484E-01  3.81348E-01  4.43069E-01  4.00049E-01
   3.94329E-01  3.45954E-01  3.91427E-01  3.22071E-01  3.51072E-01  3.13151E-01  2.83102E-01  3.07325E-01  2.68622E-01  3.47033E-01
   2.89193E-01  2.94385E-01  2.52848E-01  2.41744E-01  2.69388E-01  3.22678E-01  3.24346E-01  3.42308E-01  3.37519E-01  3.97864E-01
   4.42790E-01  4.11259E-01  4.28042E-01  4.04851E-01  4.35187E-01  3.78182E-01  3.69402E-01  4.09789E-01  3.95611E-01  3.91365E-01
   4.27967E-01  4.18621E-01  4.82364E-01  3.87153E-01  4.38837E-01  3.74838E-01  2.83852E-01  3.27872E-01  2.47596E-01  2.56964E-01
   2.61546E-01  3.31815E-01  3.19972E-01  3.12546E-01  3.20656E-01  3.54415E-01  3.77577E-01  3.76865E-01  4.31627E-01  4.63481E-01
   4.79139E-01  4.62782E-01  5.40071E-01  6.04462E-01  5.99892E-01  5.96111E-01  6.52231E-01  6.79178E-01  6.84639E-01  7.07367E-01
   6.87575E-01  7.12337E-01  6.10725E-01  6.46893E-01  6.41652E-01  5.73949E-01  5.81593E-01  5.52387E-01  4.84670E-01  5.60282E-01
   5.07586E-01  5.31938E-01  5.31653E-01  5.22941E-01  5.78921E-01  5.24456E-01  5.30267E-01  5.56539E-01  5.82998E-01  6.09423E-01
   6.88812E-01  7.32017E-01  7.92986E-01  7.38398E-01  7.76866E-01  7.93673E-01  8.27521E-01  8.39504E-01  8.57640E-01  8.44082E-01
   8.83814E-01  9.24813E-01  8.76383E-01  9.00614E-01  8.41923E-01  8.94818E-01  8.84149E-01  7.81951E-01  8.45541E-01  8.51979E-01
   8.18140E-01  8.38646E-01  8.72384E-01  8.93512E-01  9.64893E-01  1.01229E+00  1.08690E+00  1.19298E+00  1.28451E+00  1.32185E+00
   1.34056E+00  1.32836E+00  1.35548E+00  1.33654E+00  1.22522E+00  1.16116E+00  1.07175E+00  1.05819E+00  1.00532E+00  1.00834E+00
   1.00757E+00  9.75638E-01  1.04254E+00  1.09960E+00  1.13393E+00  1.10523E+00  1.10594E+00  1.12194E+00  1.13124E+00  1.10208E+00
   1.06306E+00  1.02254E+00  1.01903E+00  1.01021E+00  9.80793E-01  9.96719E-01  9.91272E-01  9.50488E-01  9.60049E-01  8.84042E-01
   9.29444E-01  8.89700E-01  9.12714E-01  9.89427E-01  9.06107E-01  9.11504E-01  9.39938E-01  8.68187E-01  9.54290E-01  9.00936E-01
   9.62697E-01  9.88193E-01  9.11757E-01  9.92624E-01  9.55422E-01  1.08475E+00  1.00217E+00  1.15911E+00  1.19561E+00  1.26311E+00
   1.29137E+00  1.35439E+00  1.36351E+00  1.39947E+00  1.42026E+00  1.47647E+00  1.49552E+00  1.57031E+00  1.63824E+00  1.72184E+00
   1.73032E+00  1.85882E+00  1.97753E+00  2.10790E+00  2.25118E+00  2.39348E+00  2.65566E+00  2.80421E+00  3.07387E+00  3.42395E+00
   3.64195E+00  3.93080E+00  4.10355E+00  4.13626E+00  3.99979E+00  3.68301E+00  3.34985E+00  3.07375E+00  2.69242E+00  2.38817E+00
   2.07557E+00  1.78751E+00  1.56780E+00  1.37433E+00  1.18612E+00  1.03599E+00  9.38098E-01  8.03013E-01  6.85181E-01  6.72764E-01
   5.95905E-01  5.50937E-01  5.31190E-01  4.48623E-01  5.04497E-01  3.88682E-01  3.70728E-01  3.84420E-01  3.00364E-01  3.51933E-01
   3.34747E-01  3.61835E-01  3.85957E-01  3.34660E-01  2.43822E-01  2.90615E-01  2.71066E-01  3.27831E-01  2.83978E-01  2.86486E-01
   3.02005E-01  2.97708E-01  1.72747E-01  2.26406E-01  2.61481E-01  2.36443E-01  2.28116E-01  2.38036E-01  2.77864E-01  2.49684E-01
   1.97609E-01  2.02642E-01  2.37333E-01  2.44030E-01  2.17155E-01  1.98727E-01  2.06159E-01  1.68338E-01  2.31772E-01  1.77428E-01
   9.95466E-02  2.16610E-01  1.64492E-01  1.83321E-01  1.63177E-01  1.57205E-01  2.21122E-01  2.17319E-01  2.01897E-01  1.80295E-01
   2.61339E-01  2.28233E-01  2.72655E-01  2.38245E-01  3.29391E-01  3.02524E-01  2.51944E-01  2.80294E-01  2.88164E-01  3.18784E-01
   3.54104E-01  2.95694E-01  2.81500E-01  3.18443E-01  2.74699E-01  2.89378E-01  3.44150E-01  2.72236E-01  2.10485E-01  2.90322E-01
   2.31090E-01  2.08738E-01  2.04832E-01  1.70580E-01  2.04203E-01  1.73805E-01  1.73250E-01  1.76226E-01  1.98022E-01  1.56570E-01
   1.73724E-01  1.19587E-01  1.17553E-01  1.54699E-01  2.36451E-01  1.65946E-01  2.06057E-01  1.57582E-01  1.91148E-01  1.07841E-01
   1.46588E-01  1.15409E-01  1.86883E-01  1.58828E-01  9.87230E-02  1.63926E-01  9.10807E-02  1.36691E-01  9.82293E-02  7.89428E-02
   1.61295E-01  1.34883E-01  1.20819E-01  1.35643E-01  1.97119E-01  2.18053E-01  1.78874E-01  1.51289E-01  2.10392E-01  2.52140E-01
   2.45818E-01  2.13538E-01  2.14155E-01  2.65757E-01  2.64294E-01  3.31781E-01  2.94019E-01  2.35315E-01  2.79267E-01  3.34292E-01
   2.75370E-01  3.15719E-01  3.15737E-01  2.78737E-01  2.35095E-01  2.71197E-01  2.76795E-01  2.16622E-01  1.82013E-01  1.91520E-01
   2.42149E-01  2.05711E-01  2.45924E-01  2.02311E-01  2.09110E-01  1.94651E-01  2.09846E-01  1.58004E-01  1.82427E-01  1.64823E-01
   1.49660E-01  1.65761E-01  9.59779E-02  1.21471E-01  1.80384E-01  1.22019E-01  9.62473E-02  1.10139E-01  1.55781E-01  1.87482E-01
   2.03960E-01  1.65620E-01  1.98300E-01  1.46087E-01  2.30583E-01  2.01447E-01  2.49399E-01  2.85396E-01  2.63966E-01  2.44448E-01
   2.76497E-01  2.40278E-01  2.00076E-01  2.36081E-01  2.06129E-01  1.71738E-01  2.11129E-01  1.79558E-01  1.99599E-01  1.26949E-01
   1.00933E-01  1.88399E-01  1.43597E-01  1.10117E-01  7.68553E-02  1.23684E-01  7.80437E-02  1.22949E-01  1.29891E-01  8.79522E-02
   8.69042E-02  1.52688E-01  1.46592E-01  1.51332E-01  1.53296E-01  1.13913E-01  1.74814E-01  1.66529E-01  2.34482E-01  1.88249E-01
   1.73038E-01  2.30999E-01  2.29443E-01  2.69699E-01  2.82701E-01  3.65871E-01  3.31221E-01  2.91232E-01  3.41432E-01  3.65623E-01
   3.88843E-01  4.03713E-01  3.99027E-01  4.05983E-01  4.39603E-01  4.84059E-01  5.15927E-01  5.20428E-01  5.05037E-01  4.96949E-01
   4.91602E-01  5.33208E-01  4.78194E-01  5.42645E-01  5.59460E-01  4.77292E-01  5.24730E-01  4.22328E-01  4.19985E-01  4.51879E-01
   4.29278E-01  4.07044E-01  3.85310E-01  3.47327E-01  2.95208E-01  3.04824E-01  2.57280E-01  2.23262E-01  1.90502E-01  2.17092E-01
   2.23191E-01  1.82747E-01  1.41669E-01  1.38780E-01  1.32570E-01  4.82102E-02  6.79903E-02  2.96596E-02  3.49799E-02 -1.08008E-02
   3.59117E-02 -3.33161E-02 -1.47206E-02 -8.68209E-03 -4.06523E-02 -4.92103E-02 -1.09166E-01 -8.15917E-02 -7.09401E-02 -1.87307E-02
  -7.32905E-02 -5.04810E-02 -4.84943E-02 -8.99026E-02 -3.88057E-02 -8.38353E-02 -8.41513E-02 -1.22443E-01 -1.20730E-01 -1.19684E-01
  -6.39341E-02 -7.65406E-02 -1.48349E-01 -1.43701E-01 -5.63220E-02 -9.29269E-02 -1.49631E-01 -1.45792E-01 -1.17414E-01 -1.14509E-01
  -1.01924E-01 -1.47445E-01 -1.30540E-01 -5.85035E-02 -4.71653E-02 -1.28474E-01 -1.06224E-01 -9.12400E-02 -9.20077E-02 -1.18328E-01
  -6.22389E-02 -2.75878E-02 -1.64921E-01 -7.52236E-02 -1.10459E-01 -8.80085E-02 -9.23753E-02 -1.65404E-02 -8.02776E-02 -1.91500E-02
  -1.17971E-01 -4.40236E-02 -9.07809E-02 -7.37823E-02
 NY points of the fit to the data follow
   2.83285E-01  2.66788E-01  2.56039E-01  2.52117E-01  2.51306E-01  2.50841E-01  2.52112E-01  2.58344E-01  2.75007E-01  3.10499E-01
   3.61700E-01  4.10960E-01  4.54065E-01  5.02415E-01  5.67032E-01  6.50705E-01  7.46760E-01  8.46712E-01  9.52596E-01  1.07356E+00
   1.20808E+00  1.33301E+00  1.41781E+00  1.45191E+00  1.45091E+00  1.43280E+00  1.39850E+00  1.33926E+00  1.25529E+00  1.16302E+00
   1.08108E+00  1.01038E+00  9.37447E-01  8.59523E-01  7.89886E-01  7.36659E-01  7.00208E-01  6.77446E-01  6.64644E-01  6.61065E-01
   6.68344E-01  6.86533E-01  7.13449E-01  7.44500E-01  7.75165E-01  8.05294E-01  8.37620E-01  8.73776E-01  9.12422E-01  9.50954E-01
   9.87544E-01  1.02378E+00  1.06404E+00  1.10960E+00  1.15558E+00  1.19497E+00  1.22428E+00  1.24397E+00  1.25399E+00  1.25051E+00
   1.23024E+00  1.19659E+00  1.15892E+00  1.12560E+00  1.09959E+00  1.07910E+00  1.06174E+00  1.04661E+00  1.03321E+00  1.02098E+00
   1.00766E+00  9.90589E-01  9.70348E-01  9.52748E-01  9.45724E-01  9.54444E-01  9.78980E-01  1.01552E+00  1.05911E+00  1.10397E+00
   1.14196E+00  1.16318E+00  1.15943E+00  1.12832E+00  1.07606E+00  1.01438E+00  9.51562E-01  8.91588E-01  8.40725E-01  8.06700E-01
   7.96341E-01  8.13130E-01  8.54932E-01  9.15371E-01  9.90199E-01  1.07740E+00  1.16954E+00  1.25175E+00  1.30971E+00  1.33798E+00
   1.33918E+00  1.31780E+00  1.27634E+00  1.21565E+00  1.13893E+00  1.05433E+00  9.71956E-01  8.97223E-01  8.30212E-01  7.71773E-01
   7.24562E-01  6.90135E-01  6.67984E-01  6.53779E-01  6.41553E-01  6.28332E-01  6.15141E-01  6.02373E-01  5.88053E-01  5.70458E-01
   5.49575E-01  5.27156E-01  5.05678E-01  4.86552E-01  4.69724E-01  4.55026E-01  4.42643E-01  4.32185E-01  4.22480E-01  4.12647E-01
   4.03293E-01  3.96393E-01  3.93745E-01  3.95810E-01  4.01705E-01  4.08813E-01  4.15917E-01  4.24079E-01  4.33490E-01  4.43315E-01
   4.53168E-01  4.62794E-01  4.71249E-01  4.77299E-01  4.79306E-01  4.74888E-01  4.62608E-01  4.45274E-01  4.29491E-01  4.19255E-01
   4.14787E-01  4.17692E-01  4.30345E-01  4.53895E-01  4.87422E-01  5.27922E-01  5.71924E-01  6.19046E-01  6.73891E-01  7.39910E-01
   8.11029E-01  8.72130E-01  9.19349E-01  9.68524E-01  1.03691E+00  1.13085E+00  1.24785E+00  1.38198E+00  1.52637E+00  1.67152E+00
   1.79925E+00  1.88156E+00  1.89429E+00  1.83474E+00  1.72341E+00  1.58735E+00  1.44309E+00  1.29775E+00  1.15793E+00  1.03211E+00
   9.26027E-01  8.36945E-01  7.55200E-01  6.76236E-01  6.07229E-01  5.54593E-01  5.16847E-01  4.90511E-01  4.72974E-01  4.62255E-01
   4.57034E-01  4.57213E-01  4.63380E-01  4.76028E-01  4.95975E-01  5.25309E-01  5.68431E-01  6.32111E-01  7.18178E-01  8.09385E-01
   8.93227E-01  9.85778E-01  1.10665E+00  1.26607E+00  1.46671E+00  1.70242E+00  1.96039E+00  2.22528E+00  2.47332E+00  2.66433E+00
   2.75394E+00  2.72357E+00  2.59388E+00  2.40275E+00  2.17883E+00  1.94054E+00  1.70505E+00  1.48950E+00  1.30613E+00  1.15489E+00
   1.02194E+00  8.95698E-01  7.84212E-01  6.97173E-01  6.31714E-01  5.84874E-01  5.53734E-01  5.34152E-01  5.22357E-01  5.14950E-01
   5.08749E-01  5.00936E-01  4.89792E-01  4.75492E-01  4.59003E-01  4.41136E-01  4.23053E-01  4.06585E-01  3.93030E-01  3.82250E-01
   3.73331E-01  3.65281E-01  3.56794E-01  3.46764E-01  3.35639E-01  3.24852E-01  3.15577E-01  3.08693E-01  3.04649E-01  3.03541E-01
   3.05520E-01  3.10381E-01  3.16690E-01  3.22008E-01  3.26806E-01  3.34641E-01  3.47652E-01  3.65584E-01  3.87274E-01  4.10963E-01
   4.32691E-01  4.47964E-01  4.55388E-01  4.55062E-01  4.48456E-01  4.40165E-01  4.35764E-01  4.37989E-01  4.45834E-01  4.55818E-01
   4.62774E-01  4.60833E-01  4.46075E-01  4.18892E-01  3.83352E-01  3.45390E-01  3.11325E-01  2.84369E-01  2.64140E-01  2.49773E-01
   2.41335E-01  2.39199E-01  2.43661E-01  2.56443E-01  2.79643E-01  3.13245E-01  3.54363E-01  3.97896E-01  4.39181E-01  4.74944E-01
   5.03667E-01  5.26401E-01  5.45947E-01  5.65326E-01  5.86735E-01  6.10399E-01  6.34414E-01  6.55588E-01  6.70179E-01  6.75960E-01
   6.73545E-01  6.64448E-01  6.49337E-01  6.28464E-01  6.03006E-01  5.76130E-01  5.50725E-01  5.27170E-01  5.06037E-01  4.90611E-01
   4.83740E-01  4.84082E-01  4.88286E-01  4.94970E-01  5.05003E-01  5.19997E-01  5.40469E-01  5.65753E-01  5.95313E-01  6.29332E-01
   6.68075E-01  7.09057E-01  7.46672E-01  7.77726E-01  8.03888E-01  8.28233E-01  8.51428E-01  8.72705E-01  8.92130E-01  9.09867E-01
   9.25509E-01  9.37827E-01  9.43522E-01  9.39660E-01  9.28075E-01  9.13917E-01  9.00163E-01  8.85634E-01  8.68820E-01  8.53356E-01
   8.44368E-01  8.41765E-01  8.46208E-01  8.64676E-01  9.05249E-01  9.71069E-01  1.05809E+00  1.15579E+00  1.25033E+00  1.32951E+00
   1.38414E+00  1.40618E+00  1.39011E+00  1.33809E+00  1.26112E+00  1.17545E+00  1.09590E+00  1.03200E+00  9.88432E-01  9.67155E-01
   9.69281E-01  9.92723E-01  1.02819E+00  1.06346E+00  1.09066E+00  1.10555E+00  1.10627E+00  1.09461E+00  1.07434E+00  1.04911E+00
   1.02228E+00  9.97098E-01  9.76164E-01  9.60092E-01  9.47408E-01  9.36261E-01  9.25982E-01  9.17581E-01  9.12201E-01  9.09998E-01
   9.10330E-01  9.12499E-01  9.16938E-01  9.24788E-01  9.36592E-01  9.51589E-01  9.67711E-01  9.82840E-01  9.95707E-01  1.00571E+00
   1.01331E+00  1.01994E+00  1.02740E+00  1.03849E+00  1.05642E+00  1.08270E+00  1.11717E+00  1.15879E+00  1.20437E+00  1.24841E+00
   1.28703E+00  1.31958E+00  1.34765E+00  1.37353E+00  1.39989E+00  1.42847E+00  1.46003E+00  1.49951E+00  1.55504E+00  1.63213E+00
   1.73406E+00  1.86287E+00  2.00375E+00  2.13196E+00  2.25553E+00  2.40555E+00  2.60053E+00  2.83904E+00  3.10933E+00  3.39463E+00
   3.67378E+00  3.91725E+00  4.08054E+00  4.11110E+00  3.98159E+00  3.71878E+00  3.38544E+00  3.03290E+00  2.68431E+00  2.35227E+00
   2.05064E+00  1.79214E+00  1.57842E+00  1.39246E+00  1.21244E+00  1.04099E+00  8.98705E-01  7.90504E-01  7.08539E-01  6.45162E-01
   5.95721E-01  5.57029E-01  5.25938E-01  4.99799E-01  4.77130E-01  4.56922E-01  4.38439E-01  4.21167E-01  4.04471E-01  3.87576E-01
   3.70081E-01  3.52204E-01  3.34500E-01  3.17521E-01  3.01762E-01  2.87558E-01  2.75166E-01  2.64866E-01  2.56797E-01  2.50684E-01
   2.45916E-01  2.41914E-01  2.38191E-01  2.34320E-01  2.30042E-01  2.25182E-01  2.19751E-01  2.14069E-01  2.08635E-01  2.03837E-01
   1.99872E-01  1.96837E-01  1.94754E-01  1.93518E-01  1.92915E-01  1.92784E-01  1.93094E-01  1.93850E-01  1.95064E-01  1.96763E-01
   1.98989E-01  2.01790E-01  2.05208E-01  2.09230E-01  2.13804E-01  2.18902E-01  2.24458E-01  2.30312E-01  2.36306E-01  2.42321E-01
   2.48262E-01  2.54037E-01  2.59539E-01  2.64664E-01  2.69324E-01  2.73450E-01  2.76976E-01  2.79816E-01  2.81878E-01  2.83109E-01
   2.83487E-01  2.82996E-01  2.81627E-01  2.79387E-01  2.76301E-01  2.72405E-01  2.67756E-01  2.62421E-01  2.56480E-01  2.50025E-01
   2.43155E-01  2.35974E-01  2.28584E-01  2.21088E-01  2.13585E-01  2.06174E-01  1.98941E-01  1.91968E-01  1.85326E-01  1.79075E-01
   1.73264E-01  1.67930E-01  1.63097E-01  1.58779E-01  1.54979E-01  1.51688E-01  1.48890E-01  1.46559E-01  1.44664E-01  1.43172E-01
   1.42045E-01  1.41249E-01  1.40749E-01  1.40520E-01  1.40540E-01  1.40802E-01  1.41308E-01  1.42075E-01  1.43139E-01  1.44550E-01
   1.46378E-01  1.48706E-01  1.51630E-01  1.55257E-01  1.59693E-01  1.65038E-01  1.71376E-01  1.78759E-01  1.87200E-01  1.96661E-01
