 LCModel (Version 6.3-0D) Copyright: S.W. Provencher.          Ref.: Magn. Reson. Med. 30:672-679 (1993).                
 S11_PRESS_35
 Data of: Dept of Radiology, The Johns Hopkins University School of Medicine
 17-March-2020  16:36
 32 lines in following concentration table = NCONC+1
    Conc.  %SD /Cr+PCr  Metabolite                                         
    1.575  39%   0.673 Asc                                                 
    9.948  12%   4.250 Asp                                                 
    4.721  14%   2.017 Cr                                                  
    1.749  35%   0.747 GABA                                                
    1.907  23%   0.815 GPC                                                 
    2.599  10%   1.110 GSH                                                 
    3.825  24%   1.634 Gln                                                 
   23.360   5%   9.980 Glu                                                 
   14.700   4%   6.280 Ins                                                 
    1.074  50%   0.459 Lac                                                 
   22.841   3%   9.758 NAA                                                 
    2.143  22%   0.916 NAAG                                                
    1.119  39%   0.478 PCh                                                 
   14.005   5%   5.983 PCr                                                 
    5.762  21%   2.462 PE                                                  
    0.514  19%   0.220 Scyllo                                              
    1.515  50%   0.647 Tau                                                 
    5.441   8%   2.325 -CrCH2                                              
    3.026   3%   1.293 PCh+GPC                                             
   18.726   2%   8.000 Cr+PCr                                              
   24.984   2%  10.674 NAA+NAAG                                            
   27.186   5%  11.614 Glu+Gln                                             
   26.977  27%  11.525 Lip13a                                              
    0.000 999%   0.000 Lip13b                                              
    6.134  50%   2.621 Lip09                                               
   18.283  17%   7.811 MM09                                                
    5.951  28%   2.543 Lip20                                               
   23.252  17%   9.933 MM20                                                
    9.966  18%   4.258 MM12                                                
   20.532  20%   8.772 MM14                                                
    0.556 398%   0.237 MM17                                                
   6 lines in following misc. output table
  FWHM = 0.029 ppm    S/N =  44                                            
  Data shift = 0.000 ppm                                                   
  Ph:  -3 deg       0.0 deg/ppm                                            
  alphaB,S = 3.6E-02,   4.3E-01                                            
   26 spline knots.   Ns = 8(1)                                            
   3 inflections.     1 extrema                                            
  734 points on ppm-axis = NY
      4.000000     3.995223     3.990446     3.985669     3.980892     3.976115     3.971338     3.966561     3.961784     3.957007
      3.952230     3.947453     3.942677     3.937900     3.933123     3.928346     3.923569     3.918792     3.914015     3.909238
      3.904461     3.899684     3.894907     3.890130     3.885353     3.880576     3.875799     3.871022     3.866245     3.861468
      3.856691     3.851914     3.847137     3.842360     3.837584     3.832807     3.828030     3.823253     3.818476     3.813699
      3.808922     3.804145     3.799368     3.794591     3.789814     3.785037     3.780260     3.775483     3.770706     3.765929
      3.761152     3.756375     3.751598     3.746821     3.742044     3.737267     3.732491     3.727714     3.722937     3.718160
      3.713383     3.708606     3.703829     3.699052     3.694275     3.689498     3.684721     3.679944     3.675167     3.670390
      3.665613     3.660836     3.656059     3.651282     3.646505     3.641728     3.636951     3.632174     3.627398     3.622621
      3.617844     3.613067     3.608290     3.603513     3.598736     3.593959     3.589182     3.584405     3.579628     3.574851
      3.570074     3.565297     3.560520     3.555743     3.550966     3.546189     3.541412     3.536635     3.531858     3.527081
      3.522305     3.517528     3.512751     3.507974     3.503197     3.498420     3.493643     3.488866     3.484089     3.479312
      3.474535     3.469758     3.464981     3.460204     3.455427     3.450650     3.445873     3.441096     3.436319     3.431542
      3.426765     3.421988     3.417212     3.412435     3.407658     3.402881     3.398104     3.393327     3.388550     3.383773
      3.378996     3.374219     3.369442     3.364665     3.359888     3.355111     3.350334     3.345557     3.340780     3.336003
      3.331226     3.326449     3.321672     3.316895     3.312119     3.307342     3.302565     3.297788     3.293011     3.288234
      3.283457     3.278680     3.273903     3.269126     3.264349     3.259572     3.254795     3.250018     3.245241     3.240464
      3.235687     3.230910     3.226133     3.221356     3.216579     3.211802     3.207026     3.202249     3.197472     3.192695
      3.187918     3.183141     3.178364     3.173587     3.168810     3.164033     3.159256     3.154479     3.149702     3.144925
      3.140148     3.135371     3.130594     3.125817     3.121040     3.116263     3.111486     3.106709     3.101933     3.097156
      3.092379     3.087602     3.082825     3.078048     3.073271     3.068494     3.063717     3.058940     3.054163     3.049386
      3.044609     3.039832     3.035055     3.030278     3.025501     3.020724     3.015947     3.011170     3.006393     3.001616
      2.996840     2.992063     2.987286     2.982509     2.977732     2.972955     2.968178     2.963401     2.958624     2.953847
      2.949070     2.944293     2.939516     2.934739     2.929962     2.925185     2.920408     2.915631     2.910854     2.906077
      2.901300     2.896523     2.891747     2.886970     2.882193     2.877416     2.872639     2.867862     2.863085     2.858308
      2.853531     2.848754     2.843977     2.839200     2.834423     2.829646     2.824869     2.820092     2.815315     2.810538
      2.805761     2.800984     2.796207     2.791430     2.786654     2.781877     2.777100     2.772323     2.767546     2.762769
      2.757992     2.753215     2.748438     2.743661     2.738884     2.734107     2.729330     2.724553     2.719776     2.714999
      2.710222     2.705445     2.700668     2.695891     2.691114     2.686337     2.681561     2.676784     2.672007     2.667230
      2.662453     2.657676     2.652899     2.648122     2.643345     2.638568     2.633791     2.629014     2.624237     2.619460
      2.614683     2.609906     2.605129     2.600352     2.595575     2.590798     2.586021     2.581244     2.576468     2.571691
      2.566914     2.562137     2.557360     2.552583     2.547806     2.543029     2.538252     2.533475     2.528698     2.523921
      2.519144     2.514367     2.509590     2.504813     2.500036     2.495259     2.490482     2.485705     2.480928     2.476151
      2.471375     2.466598     2.461821     2.457044     2.452267     2.447490     2.442713     2.437936     2.433159     2.428382
      2.423605     2.418828     2.414051     2.409274     2.404497     2.399720     2.394943     2.390166     2.385389     2.380612
      2.375835     2.371058     2.366282     2.361505     2.356728     2.351951     2.347174     2.342397     2.337620     2.332843
      2.328066     2.323289     2.318512     2.313735     2.308958     2.304181     2.299404     2.294627     2.289850     2.285073
      2.280296     2.275519     2.270742     2.265965     2.261189     2.256412     2.251635     2.246858     2.242081     2.237304
      2.232527     2.227750     2.222973     2.218196     2.213419     2.208642     2.203865     2.199088     2.194311     2.189534
      2.184757     2.179980     2.175203     2.170426     2.165649     2.160872     2.156096     2.151319     2.146542     2.141765
      2.136988     2.132211     2.127434     2.122657     2.117880     2.113103     2.108326     2.103549     2.098772     2.093995
      2.089218     2.084441     2.079664     2.074887     2.070110     2.065333     2.060556     2.055779     2.051003     2.046226
      2.041449     2.036672     2.031895     2.027118     2.022341     2.017564     2.012787     2.008010     2.003233     1.998456
      1.993679     1.988902     1.984125     1.979348     1.974571     1.969794     1.965017     1.960240     1.955463     1.950686
      1.945910     1.941133     1.936356     1.931579     1.926802     1.922025     1.917248     1.912471     1.907694     1.902917
      1.898140     1.893363     1.888586     1.883809     1.879032     1.874255     1.869478     1.864701     1.859924     1.855147
      1.850370     1.845593     1.840816     1.836040     1.831263     1.826486     1.821709     1.816932     1.812155     1.807378
      1.802601     1.797824     1.793047     1.788270     1.783493     1.778716     1.773939     1.769162     1.764385     1.759608
      1.754831     1.750054     1.745277     1.740500     1.735723     1.730947     1.726170     1.721393     1.716616     1.711839
      1.707062     1.702285     1.697508     1.692731     1.687954     1.683177     1.678400     1.673623     1.668846     1.664069
      1.659292     1.654515     1.649738     1.644961     1.640184     1.635407     1.630630     1.625854     1.621077     1.616300
      1.611523     1.606746     1.601969     1.597192     1.592415     1.587638     1.582861     1.578084     1.573307     1.568530
      1.563753     1.558976     1.554199     1.549422     1.544645     1.539868     1.535091     1.530314     1.525537     1.520761
      1.515984     1.511207     1.506430     1.501653     1.496876     1.492099     1.487322     1.482545     1.477768     1.472991
      1.468214     1.463437     1.458660     1.453883     1.449106     1.444329     1.439552     1.434775     1.429998     1.425221
      1.420444     1.415668     1.410891     1.406114     1.401337     1.396560     1.391783     1.387006     1.382229     1.377452
      1.372675     1.367898     1.363121     1.358344     1.353567     1.348790     1.344013     1.339236     1.334459     1.329682
      1.324905     1.320128     1.315351     1.310575     1.305798     1.301021     1.296244     1.291467     1.286690     1.281913
      1.277136     1.272359     1.267582     1.262805     1.258028     1.253251     1.248474     1.243697     1.238920     1.234143
      1.229366     1.224589     1.219812     1.215035     1.210258     1.205482     1.200705     1.195928     1.191151     1.186374
      1.181597     1.176820     1.172043     1.167266     1.162489     1.157712     1.152935     1.148158     1.143381     1.138604
      1.133827     1.129050     1.124273     1.119496     1.114719     1.109942     1.105165     1.100389     1.095612     1.090835
      1.086058     1.081281     1.076504     1.071727     1.066950     1.062173     1.057396     1.052619     1.047842     1.043065
      1.038288     1.033511     1.028734     1.023957     1.019180     1.014403     1.009626     1.004849     1.000072     0.995296
      0.990519     0.985742     0.980965     0.976188     0.971411     0.966634     0.961857     0.957080     0.952303     0.947526
      0.942749     0.937972     0.933195     0.928418     0.923641     0.918864     0.914087     0.909310     0.904533     0.899756
      0.894979     0.890203     0.885426     0.880649     0.875872     0.871095     0.866318     0.861541     0.856764     0.851987
      0.847210     0.842433     0.837656     0.832879     0.828102     0.823325     0.818548     0.813771     0.808994     0.804217
      0.799440     0.794663     0.789886     0.785110     0.780333     0.775556     0.770779     0.766002     0.761225     0.756448
      0.751671     0.746894     0.742117     0.737340     0.732563     0.727786     0.723009     0.718232     0.713455     0.708678
      0.703901     0.699124     0.694347     0.689570     0.684793     0.680017     0.675240     0.670463     0.665686     0.660909
      0.656132     0.651355     0.646578     0.641801     0.637024     0.632247     0.627470     0.622693     0.617916     0.613139
      0.608362     0.603585     0.598808     0.594031     0.589254     0.584477     0.579700     0.574924     0.570147     0.565370
      0.560593     0.555816     0.551039     0.546262     0.541485     0.536708     0.531931     0.527154     0.522377     0.517600
      0.512823     0.508046     0.503269     0.498492
 NY phased data points follow
   2.41425E-01  2.83816E-01  2.58745E-01  3.34384E-01  2.68721E-01  3.74172E-01  3.62461E-01  3.15635E-01  3.92963E-01  4.04998E-01
   4.21985E-01  4.12545E-01  4.90970E-01  5.35998E-01  6.68137E-01  7.13471E-01  7.55958E-01  8.22833E-01  1.02399E+00  1.12350E+00
   1.25782E+00  1.38304E+00  1.54671E+00  1.50504E+00  1.63689E+00  1.61296E+00  1.53447E+00  1.52272E+00  1.33291E+00  1.20595E+00
   1.09418E+00  9.50249E-01  9.01322E-01  7.70108E-01  7.36426E-01  7.15831E-01  7.19221E-01  6.63854E-01  6.94161E-01  6.92014E-01
   7.18902E-01  7.15982E-01  7.20003E-01  7.34918E-01  7.63421E-01  8.13666E-01  8.76180E-01  8.81887E-01  9.34743E-01  9.21566E-01
   8.89288E-01  9.14096E-01  1.01251E+00  1.03173E+00  1.06914E+00  1.15189E+00  1.14492E+00  1.27910E+00  1.26919E+00  1.24065E+00
   1.23053E+00  1.13385E+00  1.01731E+00  9.28898E-01  9.83441E-01  1.01050E+00  9.68229E-01  9.95976E-01  1.05157E+00  1.03359E+00
   1.10502E+00  9.38718E-01  9.47547E-01  8.96174E-01  7.98956E-01  8.47482E-01  8.67788E-01  8.33568E-01  8.98720E-01  8.90123E-01
   1.04678E+00  1.20895E+00  1.24519E+00  1.22162E+00  1.18749E+00  1.05528E+00  1.00529E+00  9.40164E-01  7.40997E-01  6.90932E-01
   6.88528E-01  6.30271E-01  6.82274E-01  6.65833E-01  7.90577E-01  9.97893E-01  1.16042E+00  1.31064E+00  1.45903E+00  1.52234E+00
   1.52278E+00  1.50094E+00  1.43294E+00  1.36644E+00  1.27484E+00  1.06567E+00  8.89078E-01  7.87151E-01  7.28572E-01  5.88712E-01
   6.31224E-01  5.50751E-01  6.01269E-01  5.21074E-01  5.61205E-01  5.83325E-01  5.83739E-01  5.90528E-01  6.04318E-01  6.23798E-01
   5.15990E-01  5.95704E-01  5.29895E-01  4.63669E-01  5.67982E-01  4.63631E-01  4.72687E-01  4.93154E-01  4.34712E-01  3.80532E-01
   4.48280E-01  4.29726E-01  4.16122E-01  4.10591E-01  4.44558E-01  4.15456E-01  4.68013E-01  4.04428E-01  4.50959E-01  4.12309E-01
   4.32575E-01  4.70168E-01  4.85905E-01  4.81645E-01  5.10555E-01  5.36151E-01  4.60499E-01  4.59264E-01  3.79835E-01  3.62394E-01
   3.17058E-01  3.15792E-01  3.54365E-01  3.65337E-01  4.67061E-01  4.88040E-01  5.69864E-01  6.35523E-01  6.74088E-01  7.58562E-01
   7.21693E-01  8.31256E-01  8.76061E-01  8.82825E-01  9.22149E-01  9.75900E-01  9.25202E-01  1.06279E+00  1.20189E+00  1.51429E+00
   1.65072E+00  1.83004E+00  1.85058E+00  1.88659E+00  1.83613E+00  1.64899E+00  1.43398E+00  1.25368E+00  1.10252E+00  8.67451E-01
   7.79195E-01  6.54810E-01  6.09009E-01  5.55657E-01  5.43656E-01  4.60220E-01  4.59317E-01  4.66082E-01  4.50483E-01  4.62316E-01
   4.66373E-01  4.48969E-01  4.48614E-01  4.59655E-01  4.97167E-01  5.18285E-01  4.64900E-01  4.72072E-01  5.36542E-01  5.73285E-01
   6.47054E-01  7.53773E-01  8.70279E-01  1.01071E+00  1.19320E+00  1.44967E+00  1.75929E+00  2.17794E+00  2.55676E+00  2.94052E+00
   3.14598E+00  3.11735E+00  3.01939E+00  2.73613E+00  2.35197E+00  2.03453E+00  1.66629E+00  1.43405E+00  1.16414E+00  1.01662E+00
   9.03844E-01  7.48887E-01  7.28305E-01  6.84165E-01  5.91636E-01  5.59635E-01  4.72611E-01  4.77040E-01  4.51632E-01  5.35743E-01
   5.14538E-01  4.97492E-01  4.88516E-01  4.91013E-01  5.16503E-01  4.43562E-01  4.09687E-01  3.69572E-01  4.45159E-01  3.71006E-01
   3.98547E-01  2.83103E-01  3.07853E-01  3.45600E-01  2.78128E-01  2.64183E-01  2.92453E-01  2.36665E-01  2.14220E-01  2.66737E-01
   2.77275E-01  2.54365E-01  2.19995E-01  2.61556E-01  2.34771E-01  2.97068E-01  2.64183E-01  3.16184E-01  4.19727E-01  3.87220E-01
   4.18721E-01  3.56523E-01  5.29933E-01  4.78255E-01  5.00881E-01  4.94316E-01  3.72895E-01  3.91709E-01  3.65050E-01  4.40916E-01
   4.24697E-01  4.85173E-01  4.56875E-01  4.12966E-01  3.69677E-01  3.45495E-01  2.66789E-01  2.68658E-01  2.30861E-01  1.74801E-01
   1.52704E-01  2.09443E-01  1.90058E-01  2.07639E-01  2.42355E-01  2.89965E-01  3.12506E-01  3.85895E-01  4.09146E-01  4.97854E-01
   5.38151E-01  4.64681E-01  4.80821E-01  4.64988E-01  5.20276E-01  4.77652E-01  5.77764E-01  6.92503E-01  7.03570E-01  6.76538E-01
   7.71931E-01  6.94002E-01  6.79822E-01  6.51575E-01  6.13728E-01  5.54172E-01  5.31948E-01  4.44847E-01  4.35725E-01  3.64563E-01
   3.48365E-01  3.88245E-01  3.56487E-01  4.06228E-01  4.63754E-01  4.68675E-01  4.93505E-01  4.92902E-01  5.30486E-01  6.16196E-01
   6.05635E-01  6.47115E-01  6.42183E-01  6.50559E-01  7.67231E-01  7.16860E-01  6.92840E-01  6.79351E-01  7.78045E-01  8.11007E-01
   8.36051E-01  8.91973E-01  8.95798E-01  8.49435E-01  8.88786E-01  8.38709E-01  8.14010E-01  7.15310E-01  7.70805E-01  6.69309E-01
   7.03059E-01  7.26171E-01  6.93164E-01  7.12184E-01  7.66070E-01  8.38852E-01  9.96516E-01  1.07638E+00  1.28683E+00  1.34893E+00
   1.48042E+00  1.50746E+00  1.43105E+00  1.39397E+00  1.23493E+00  1.18006E+00  1.03693E+00  8.83588E-01  8.81100E-01  8.71456E-01
   8.33583E-01  8.94813E-01  8.94930E-01  1.01428E+00  1.12966E+00  1.15150E+00  1.18161E+00  1.21838E+00  1.21290E+00  1.15831E+00
   1.10998E+00  1.06948E+00  1.05623E+00  9.95782E-01  9.84209E-01  9.91855E-01  9.88222E-01  9.62797E-01  9.68971E-01  9.91565E-01
   9.12324E-01  1.00197E+00  9.66251E-01  9.63442E-01  9.48057E-01  9.84401E-01  1.02840E+00  1.04812E+00  1.00061E+00  9.92631E-01
   1.03843E+00  1.01167E+00  1.01091E+00  9.66325E-01  1.00379E+00  1.01127E+00  1.07074E+00  1.11224E+00  1.11994E+00  1.21130E+00
   1.28641E+00  1.32119E+00  1.34516E+00  1.41067E+00  1.39820E+00  1.37763E+00  1.44069E+00  1.38702E+00  1.41035E+00  1.61235E+00
   1.61060E+00  1.59359E+00  1.67121E+00  1.79522E+00  2.01982E+00  2.19435E+00  2.42518E+00  2.60671E+00  2.81853E+00  3.07654E+00
   3.62857E+00  4.15994E+00  4.61107E+00  4.82433E+00  4.78850E+00  4.46019E+00  4.00118E+00  3.35135E+00  2.76711E+00  2.23000E+00
   1.78597E+00  1.44358E+00  1.29945E+00  1.21887E+00  1.04390E+00  8.88691E-01  8.10802E-01  7.65608E-01  7.49562E-01  6.36625E-01
   6.01333E-01  6.42475E-01  5.73697E-01  5.49158E-01  4.79334E-01  5.15971E-01  4.54006E-01  4.17756E-01  4.77524E-01  4.85447E-01
   4.81638E-01  4.88399E-01  4.45700E-01  3.57659E-01  4.50402E-01  4.43554E-01  3.58517E-01  3.12850E-01  3.14837E-01  3.91520E-01
   3.59919E-01  3.82020E-01  2.76303E-01  3.44535E-01  3.09885E-01  3.57334E-01  3.97533E-01  2.91973E-01  3.74349E-01  2.51528E-01
   2.78252E-01  2.40258E-01  2.81470E-01  2.70125E-01  3.01632E-01  2.83851E-01  3.13255E-01  2.37548E-01  2.01382E-01  2.31583E-01
   2.30807E-01  2.21245E-01  2.57795E-01  1.94748E-01  2.37608E-01  3.11232E-01  2.30951E-01  2.41303E-01  2.07921E-01  2.97836E-01
   2.45190E-01  2.43611E-01  2.42306E-01  2.44432E-01  2.64914E-01  2.88599E-01  2.59379E-01  2.56760E-01  3.52817E-01  3.15255E-01
   3.47838E-01  3.45071E-01  3.57272E-01  3.52871E-01  3.84395E-01  3.46813E-01  4.17488E-01  4.15785E-01  3.88682E-01  3.88162E-01
   4.26694E-01  4.07021E-01  4.88489E-01  3.98206E-01  4.69414E-01  4.13262E-01  4.10753E-01  3.81444E-01  3.94530E-01  3.95799E-01
   3.46730E-01  3.31050E-01  3.77709E-01  3.91810E-01  3.77819E-01  4.20789E-01  3.14773E-01  4.21787E-01  3.48542E-01  3.46425E-01
   2.92959E-01  3.38360E-01  2.70556E-01  3.32438E-01  2.77068E-01  2.63322E-01  2.48109E-01  2.95831E-01  2.29483E-01  3.03033E-01
   2.76344E-01  2.96281E-01  2.43687E-01  2.84469E-01  2.75816E-01  2.90606E-01  3.12133E-01  2.88490E-01  2.88182E-01  2.80171E-01
   2.66312E-01  2.78188E-01  2.78943E-01  2.12520E-01  2.29688E-01  4.03383E-01  3.57390E-01  2.91030E-01  3.29647E-01  3.22707E-01
   4.04596E-01  3.76540E-01  4.45526E-01  3.76250E-01  3.48905E-01  2.99150E-01  3.45585E-01  2.96871E-01  3.24692E-01  3.44976E-01
   2.98077E-01  4.07259E-01  4.17038E-01  4.32851E-01  4.23866E-01  4.01014E-01  4.28813E-01  4.19479E-01  4.24453E-01  4.20114E-01
   4.67332E-01  3.79194E-01  3.93193E-01  4.84241E-01  4.07782E-01  4.67201E-01  3.99432E-01  3.45909E-01  3.61938E-01  4.21104E-01
   3.64432E-01  3.09703E-01  3.73309E-01  2.24695E-01  2.52590E-01  2.38697E-01  2.85423E-01  2.57061E-01  2.45412E-01  2.37899E-01
   1.62424E-01  1.61010E-01  1.49007E-01  7.70104E-02  1.71662E-01  1.33959E-01  5.30325E-02  4.56302E-02  1.77685E-02  5.56997E-02
  -4.84692E-02 -9.51202E-02 -7.15819E-02 -1.17368E-01 -1.10190E-01 -1.19359E-01 -1.22699E-01 -1.12146E-01 -1.17201E-01 -1.19966E-01
  -1.16518E-01 -5.83743E-02 -6.78845E-02 -4.66478E-02 -1.90469E-02 -5.28566E-03  4.98328E-02  6.91668E-02  9.95319E-02  9.68761E-02
   1.69802E-01  1.90629E-01  1.55580E-01  1.72259E-01  1.89744E-01  2.56143E-01  2.77471E-01  2.99062E-01  3.54086E-01  3.57337E-01
   3.59626E-01  3.96093E-01  3.83908E-01  3.67957E-01  4.09845E-01  3.91724E-01  4.50613E-01  4.60491E-01  4.56732E-01  4.40681E-01
   4.98767E-01  4.56061E-01  5.14199E-01  4.58423E-01  4.89847E-01  4.57871E-01  5.09309E-01  4.59533E-01  4.63763E-01  4.36150E-01
   4.46509E-01  4.67918E-01  3.70267E-01  3.14999E-01  3.32031E-01  2.74817E-01  3.69524E-01  2.70917E-01  2.91366E-01  2.34429E-01
   2.49078E-01  1.88801E-01  2.29051E-01  1.84077E-01  1.71426E-01  9.56195E-02  1.10096E-01  1.35314E-01 -2.06355E-02  5.38254E-02
   1.20280E-02  1.25019E-01 -2.07614E-02 -5.19835E-03 -5.38354E-02  7.40871E-03  1.37360E-02  1.52474E-02 -7.70380E-03  3.02249E-02
  -2.36691E-03 -5.22629E-02 -4.61518E-03 -1.24028E-02 -6.34474E-02 -2.39428E-02 -5.26390E-02  2.46511E-02 -2.64333E-02 -2.76567E-02
  -6.88400E-02 -2.74603E-02 -4.98449E-02 -5.55718E-02 -6.48083E-02 -6.58323E-02 -9.14573E-02 -4.28243E-02 -3.79560E-02 -1.96521E-02
   3.49185E-02  1.46800E-02 -6.51154E-02  2.49794E-02  8.06993E-03 -6.92687E-03 -4.85169E-02 -1.36836E-02 -3.44713E-02 -8.73030E-02
  -4.42920E-02 -4.17991E-02 -4.46941E-02 -6.70882E-02 -4.53379E-02 -9.45382E-03 -1.23170E-01 -2.54890E-02 -5.95501E-02 -1.98520E-02
  -1.22930E-03 -7.76904E-02 -5.13012E-02 -4.01678E-02
 NY points of the fit to the data follow
   3.89513E-01  3.61379E-01  3.45816E-01  3.32981E-01  3.28697E-01  3.30820E-01  3.34404E-01  3.46352E-01  3.58546E-01  3.70831E-01
   3.91530E-01  4.22216E-01  4.74504E-01  5.57737E-01  6.46918E-01  7.22591E-01  7.61198E-01  8.13826E-01  9.59339E-01  1.10593E+00
   1.27407E+00  1.42408E+00  1.52254E+00  1.57935E+00  1.62473E+00  1.60219E+00  1.55233E+00  1.47878E+00  1.34794E+00  1.23827E+00
   1.13877E+00  1.02916E+00  9.20976E-01  8.27708E-01  7.43060E-01  6.76304E-01  6.33153E-01  6.10237E-01  6.04919E-01  6.15142E-01
   6.38379E-01  6.67332E-01  6.93951E-01  7.20102E-01  7.41991E-01  7.69426E-01  8.07029E-01  8.37053E-01  8.62241E-01  8.85309E-01
   9.04475E-01  9.45550E-01  9.97266E-01  1.05197E+00  1.11519E+00  1.17597E+00  1.22329E+00  1.26734E+00  1.28690E+00  1.27261E+00
   1.23637E+00  1.17279E+00  1.10302E+00  1.04685E+00  1.00480E+00  9.79246E-01  9.75624E-01  9.78113E-01  9.79517E-01  9.72656E-01
   9.52870E-01  9.20132E-01  8.85253E-01  8.57097E-01  8.39270E-01  8.35849E-01  8.43908E-01  8.68560E-01  9.20626E-01  1.00124E+00
   1.09615E+00  1.18137E+00  1.22838E+00  1.22222E+00  1.16623E+00  1.06714E+00  9.49058E-01  8.33604E-01  7.36706E-01  6.73288E-01
   6.42030E-01  6.38528E-01  6.61034E-01  7.20256E-01  8.34625E-01  9.75306E-01  1.13137E+00  1.27991E+00  1.38468E+00  1.44876E+00
   1.47465E+00  1.45997E+00  1.40263E+00  1.32353E+00  1.21187E+00  1.09784E+00  9.87871E-01  8.80786E-01  7.85632E-01  7.13106E-01
   6.67694E-01  6.41396E-01  6.37183E-01  6.42236E-01  6.43672E-01  6.44840E-01  6.44212E-01  6.42194E-01  6.32415E-01  6.18993E-01
   5.97238E-01  5.70184E-01  5.40879E-01  5.10817E-01  4.84200E-01  4.63026E-01  4.47079E-01  4.33435E-01  4.24245E-01  4.15982E-01
   4.07691E-01  4.00429E-01  3.95863E-01  3.95618E-01  4.00192E-01  4.09679E-01  4.21966E-01  4.34709E-01  4.44197E-01  4.51992E-01
   4.60576E-01  4.77056E-01  4.94298E-01  5.07189E-01  5.06599E-01  4.92321E-01  4.65099E-01  4.30244E-01  3.94703E-01  3.64925E-01
   3.46724E-01  3.45114E-01  3.61534E-01  3.91957E-01  4.32500E-01  4.72923E-01  5.18601E-01  5.86150E-01  6.49535E-01  7.13176E-01
   7.62258E-01  7.98946E-01  8.29222E-01  8.66527E-01  9.04617E-01  9.42063E-01  9.92235E-01  1.06473E+00  1.21755E+00  1.44149E+00
   1.65666E+00  1.83707E+00  1.92838E+00  1.91285E+00  1.80676E+00  1.63825E+00  1.42842E+00  1.22727E+00  1.04506E+00  8.90322E-01
   7.87640E-01  7.09571E-01  6.44791E-01  5.88173E-01  5.43109E-01  5.07547E-01  4.78116E-01  4.57520E-01  4.43555E-01  4.34230E-01
   4.29265E-01  4.28451E-01  4.31553E-01  4.38349E-01  4.49339E-01  4.65210E-01  4.87394E-01  5.18043E-01  5.57471E-01  6.11422E-01
   6.89218E-01  7.97464E-01  9.26061E-01  1.06068E+00  1.22591E+00  1.42961E+00  1.76886E+00  2.18892E+00  2.55652E+00  2.89459E+00
   3.10524E+00  3.12578E+00  3.01496E+00  2.76534E+00  2.39787E+00  2.03800E+00  1.67689E+00  1.35267E+00  1.14159E+00  9.70483E-01
   8.25689E-01  7.27630E-01  6.54053E-01  5.94794E-01  5.49223E-01  5.16549E-01  4.97318E-01  4.85848E-01  4.81858E-01  4.86407E-01
   4.94109E-01  4.99375E-01  4.96002E-01  4.83898E-01  4.62158E-01  4.35660E-01  4.07492E-01  3.84377E-01  3.71981E-01  3.63183E-01
   3.57574E-01  3.52496E-01  3.45371E-01  3.34022E-01  3.20979E-01  3.06130E-01  2.93273E-01  2.84114E-01  2.77201E-01  2.76242E-01
   2.79368E-01  2.83112E-01  2.89294E-01  2.97881E-01  3.08784E-01  3.21845E-01  3.34885E-01  3.48534E-01  3.68319E-01  3.96778E-01
   4.38467E-01  4.75505E-01  4.95400E-01  4.98481E-01  4.76622E-01  4.41057E-01  4.10176E-01  4.04129E-01  4.25898E-01  4.61013E-01
   4.94759E-01  5.07817E-01  4.96346E-01  4.55557E-01  3.93934E-01  3.22347E-01  2.59354E-01  2.05883E-01  1.69039E-01  1.54982E-01
   1.51433E-01  1.56247E-01  1.66256E-01  1.81190E-01  2.11405E-01  2.46254E-01  2.96504E-01  3.58711E-01  4.14290E-01  4.64267E-01
   4.96373E-01  5.04898E-01  4.99205E-01  4.97834E-01  5.13375E-01  5.41661E-01  5.81791E-01  6.18741E-01  6.53031E-01  6.73977E-01
   6.77298E-01  6.61445E-01  6.36479E-01  6.07366E-01  5.61418E-01  5.17765E-01  4.73997E-01  4.32557E-01  3.98108E-01  3.76190E-01
   3.65703E-01  3.67390E-01  3.80918E-01  4.01995E-01  4.30031E-01  4.58668E-01  4.79019E-01  4.95875E-01  5.17433E-01  5.58336E-01
   5.97533E-01  6.44486E-01  6.88604E-01  7.23606E-01  7.54842E-01  7.78481E-01  7.90398E-01  8.03266E-01  8.18991E-01  8.46694E-01
   8.77427E-01  9.06112E-01  9.25526E-01  9.33626E-01  9.24999E-01  9.01792E-01  8.67255E-01  8.28201E-01  7.83269E-01  7.41143E-01
   7.11503E-01  6.89859E-01  6.83205E-01  6.91154E-01  7.21016E-01  8.04245E-01  9.12443E-01  1.04624E+00  1.21725E+00  1.36797E+00
   1.47062E+00  1.52161E+00  1.49433E+00  1.40886E+00  1.29448E+00  1.15204E+00  1.01871E+00  9.13259E-01  8.31004E-01  7.97457E-01
   8.12909E-01  8.68828E-01  9.47994E-01  1.03344E+00  1.10883E+00  1.16032E+00  1.17924E+00  1.17089E+00  1.13973E+00  1.09470E+00
   1.05192E+00  1.01366E+00  9.84833E-01  9.65071E-01  9.49876E-01  9.39558E-01  9.32888E-01  9.30440E-01  9.32747E-01  9.37632E-01
   9.42026E-01  9.48728E-01  9.58265E-01  9.68973E-01  9.84363E-01  1.00084E+00  1.01680E+00  1.03496E+00  1.04981E+00  1.06053E+00
   1.06590E+00  1.06369E+00  1.05784E+00  1.05508E+00  1.06040E+00  1.07972E+00  1.11423E+00  1.15728E+00  1.20472E+00  1.25384E+00
   1.29663E+00  1.32994E+00  1.35182E+00  1.35894E+00  1.35682E+00  1.35551E+00  1.36629E+00  1.38921E+00  1.43047E+00  1.47684E+00
   1.53207E+00  1.59854E+00  1.68689E+00  1.82664E+00  2.00274E+00  2.21128E+00  2.41255E+00  2.59340E+00  2.79696E+00  3.08083E+00
   3.64840E+00  4.16787E+00  4.59939E+00  4.83976E+00  4.76973E+00  4.44346E+00  3.97770E+00  3.35395E+00  2.74040E+00  2.25029E+00
   1.78230E+00  1.49091E+00  1.32137E+00  1.16806E+00  1.04256E+00  9.40727E-01  8.56320E-01  7.84891E-01  7.24416E-01  6.75854E-01
   6.38448E-01  6.09613E-01  5.85974E-01  5.65672E-01  5.46769E-01  5.28620E-01  5.12006E-01  4.97128E-01  4.82933E-01  4.69017E-01
   4.54333E-01  4.39250E-01  4.23957E-01  4.08171E-01  3.92836E-01  3.77981E-01  3.64480E-01  3.52526E-01  3.42150E-01  3.33593E-01
   3.26759E-01  3.22407E-01  3.19116E-01  3.16536E-01  3.13839E-01  3.10215E-01  3.05070E-01  2.99163E-01  2.92617E-01  2.85854E-01
   2.80397E-01  2.75459E-01  2.71594E-01  2.68931E-01  2.66535E-01  2.64293E-01  2.62287E-01  2.60179E-01  2.58070E-01  2.56353E-01
   2.54588E-01  2.53205E-01  2.52315E-01  2.51993E-01  2.52554E-01  2.53938E-01  2.56126E-01  2.58925E-01  2.62121E-01  2.65669E-01
   2.69447E-01  2.73351E-01  2.77528E-01  2.81912E-01  2.86560E-01  2.91613E-01  2.97017E-01  3.02719E-01  3.08695E-01  3.14918E-01
   3.21340E-01  3.27911E-01  3.34579E-01  3.41282E-01  3.47955E-01  3.54532E-01  3.60942E-01  3.67116E-01  3.72991E-01  3.78499E-01
   3.83575E-01  3.88164E-01  3.92205E-01  3.95645E-01  3.98438E-01  4.00541E-01  4.01921E-01  4.02554E-01  4.02422E-01  4.01522E-01
   3.99853E-01  3.97425E-01  3.94260E-01  3.90388E-01  3.85851E-01  3.80698E-01  3.74985E-01  3.68776E-01  3.62141E-01  3.55154E-01
   3.47895E-01  3.40447E-01  3.32895E-01  3.25324E-01  3.17821E-01  3.10471E-01  3.03356E-01  2.96555E-01  2.90142E-01  2.84186E-01
   2.78750E-01  2.73892E-01  2.69662E-01  2.66104E-01  2.63256E-01  2.61148E-01  2.59807E-01  2.59260E-01  2.59539E-01  2.60686E-01
