 LCModel (Version 6.3-0D) Copyright: S.W. Provencher.          Ref.: Magn. Reson. Med. 30:672-679 (1993).                
 S02_PRESS_35
 Data of: Dept of Radiology, The Johns Hopkins University School of Medicine
 17-March-2020  16:31
 32 lines in following concentration table = NCONC+1
    Conc.  %SD /Cr+PCr  Metabolite                                         
    1.999  49%   0.978 Asc                                                 
    7.564  23%   3.700 Asp                                                 
    8.709   9%   4.260 Cr                                                  
    2.782  36%   1.361 GABA                                                
    0.336 172%   0.164 GPC                                                 
    3.044  14%   1.489 GSH                                                 
    5.764  26%   2.819 Gln                                                 
   27.851   6%  13.624 Glu                                                 
   15.137   6%   7.404 Ins                                                 
    0.000 999%   0.000 Lac                                                 
   24.773   3%  12.118 NAA                                                 
    1.432  53%   0.700 NAAG                                                
    3.289  19%   1.609 PCh                                                 
    7.645  11%   3.740 PCr                                                 
    0.000 999%   0.000 PE                                                  
    0.282  55%   0.138 Scyllo                                              
    1.229  76%   0.601 Tau                                                 
    0.000 999%   0.000 -CrCH2                                              
    3.626   4%   1.774 PCh+GPC                                             
   16.355   2%   8.000 Cr+PCr                                              
   26.205   2%  12.818 NAA+NAAG                                            
   33.615   6%  16.443 Glu+Gln                                             
    9.466  11%   4.631 Lip13a                                              
    0.000 999%   0.000 Lip13b                                              
    2.222  55%   1.087 Lip09                                               
   12.174  17%   5.955 MM09                                                
    1.655  52%   0.809 Lip20                                               
   21.613  17%  10.572 MM20                                                
    3.456  42%   1.691 MM12                                                
    2.738 108%   1.339 MM14                                                
    4.507  49%   2.205 MM17                                                
   6 lines in following misc. output table
  FWHM = 0.029 ppm    S/N =  35                                            
  Data shift = 0.010 ppm                                                   
  Ph:   2 deg      -0.6 deg/ppm                                            
  alphaB,S = 5.7E-02,   4.0E-01                                            
   26 spline knots.   Ns = 5(1)                                            
   2 inflections.     1 extrema                                            
  367 points on ppm-axis = NY
      4.000000     3.990446     3.980892     3.971338     3.961784     3.952230     3.942677     3.933123     3.923569     3.914015
      3.904461     3.894907     3.885353     3.875799     3.866245     3.856691     3.847137     3.837584     3.828030     3.818476
      3.808922     3.799368     3.789814     3.780260     3.770706     3.761152     3.751598     3.742044     3.732491     3.722937
      3.713383     3.703829     3.694275     3.684721     3.675167     3.665613     3.656059     3.646505     3.636951     3.627398
      3.617844     3.608290     3.598736     3.589182     3.579628     3.570074     3.560520     3.550966     3.541412     3.531858
      3.522305     3.512751     3.503197     3.493643     3.484089     3.474535     3.464981     3.455427     3.445873     3.436319
      3.426765     3.417212     3.407658     3.398104     3.388550     3.378996     3.369442     3.359888     3.350334     3.340780
      3.331226     3.321672     3.312119     3.302565     3.293011     3.283457     3.273903     3.264349     3.254795     3.245241
      3.235687     3.226133     3.216579     3.207026     3.197472     3.187918     3.178364     3.168810     3.159256     3.149702
      3.140148     3.130594     3.121040     3.111486     3.101933     3.092379     3.082825     3.073271     3.063717     3.054163
      3.044609     3.035055     3.025501     3.015947     3.006393     2.996840     2.987286     2.977732     2.968178     2.958624
      2.949070     2.939516     2.929962     2.920408     2.910854     2.901300     2.891747     2.882193     2.872639     2.863085
      2.853531     2.843977     2.834423     2.824869     2.815315     2.805761     2.796207     2.786654     2.777100     2.767546
      2.757992     2.748438     2.738884     2.729330     2.719776     2.710222     2.700668     2.691114     2.681561     2.672007
      2.662453     2.652899     2.643345     2.633791     2.624237     2.614683     2.605129     2.595575     2.586021     2.576468
      2.566914     2.557360     2.547806     2.538252     2.528698     2.519144     2.509590     2.500036     2.490482     2.480928
      2.471375     2.461821     2.452267     2.442713     2.433159     2.423605     2.414051     2.404497     2.394943     2.385389
      2.375835     2.366282     2.356728     2.347174     2.337620     2.328066     2.318512     2.308958     2.299404     2.289850
      2.280296     2.270742     2.261189     2.251635     2.242081     2.232527     2.222973     2.213419     2.203865     2.194311
      2.184757     2.175203     2.165649     2.156096     2.146542     2.136988     2.127434     2.117880     2.108326     2.098772
      2.089218     2.079664     2.070110     2.060556     2.051003     2.041449     2.031895     2.022341     2.012787     2.003233
      1.993679     1.984125     1.974571     1.965017     1.955463     1.945910     1.936356     1.926802     1.917248     1.907694
      1.898140     1.888586     1.879032     1.869478     1.859924     1.850370     1.840816     1.831263     1.821709     1.812155
      1.802601     1.793047     1.783493     1.773939     1.764385     1.754831     1.745277     1.735723     1.726170     1.716616
      1.707062     1.697508     1.687954     1.678400     1.668846     1.659292     1.649738     1.640184     1.630630     1.621077
      1.611523     1.601969     1.592415     1.582861     1.573307     1.563753     1.554199     1.544645     1.535091     1.525537
      1.515984     1.506430     1.496876     1.487322     1.477768     1.468214     1.458660     1.449106     1.439552     1.429998
      1.420444     1.410891     1.401337     1.391783     1.382229     1.372675     1.363121     1.353567     1.344013     1.334459
      1.324905     1.315351     1.305798     1.296244     1.286690     1.277136     1.267582     1.258028     1.248474     1.238920
      1.229366     1.219812     1.210258     1.200705     1.191151     1.181597     1.172043     1.162489     1.152935     1.143381
      1.133827     1.124273     1.114719     1.105165     1.095612     1.086058     1.076504     1.066950     1.057396     1.047842
      1.038288     1.028734     1.019180     1.009626     1.000072     0.990519     0.980965     0.971411     0.961857     0.952303
      0.942749     0.933196     0.923642     0.914088     0.904534     0.894980     0.885426     0.875872     0.866319     0.856765
      0.847211     0.837657     0.828103     0.818549     0.808995     0.799442     0.789888     0.780334     0.770780     0.761226
      0.751672     0.742119     0.732565     0.723011     0.713457     0.703903     0.694349     0.684795     0.675242     0.665688
      0.656134     0.646580     0.637026     0.627472     0.617918     0.608365     0.598811     0.589257     0.579703     0.570149
      0.560595     0.551042     0.541488     0.531934     0.522380     0.512826     0.503272
 NY phased data points follow
   2.00706E-01  2.15181E-01  2.66072E-01  2.67822E-01  3.89232E-01  4.53969E-01  5.36674E-01  6.99748E-01  8.61803E-01  1.19552E+00
   1.53018E+00  1.83304E+00  1.97236E+00  1.93626E+00  1.60981E+00  1.39519E+00  1.19326E+00  1.02944E+00  8.72463E-01  8.26728E-01
   8.79501E-01  9.30820E-01  1.03619E+00  1.11556E+00  1.18299E+00  1.22927E+00  1.33589E+00  1.52248E+00  1.69663E+00  1.70892E+00
   1.70729E+00  1.50508E+00  1.38195E+00  1.36761E+00  1.46378E+00  1.43496E+00  1.30081E+00  1.15468E+00  1.12798E+00  1.22473E+00
   1.47642E+00  1.69040E+00  1.59523E+00  1.38217E+00  1.05430E+00  9.35821E-01  9.41996E-01  1.19242E+00  1.51437E+00  2.03332E+00
   2.14417E+00  1.97384E+00  1.68223E+00  1.28689E+00  1.02109E+00  8.63805E-01  7.61653E-01  7.56914E-01  7.83189E-01  8.36014E-01
   7.77483E-01  7.85446E-01  7.44509E-01  6.95913E-01  6.79604E-01  6.40937E-01  5.83449E-01  5.50170E-01  5.65670E-01  6.08685E-01
   6.14774E-01  6.58458E-01  6.57974E-01  5.65290E-01  4.74097E-01  3.92111E-01  4.80174E-01  5.97462E-01  7.60696E-01  8.78563E-01
   1.10591E+00  1.11843E+00  1.16058E+00  1.34230E+00  1.71271E+00  2.31031E+00  2.84238E+00  2.71440E+00  2.16679E+00  1.58266E+00
   1.21481E+00  9.13188E-01  7.87092E-01  6.88512E-01  6.35444E-01  5.91997E-01  5.82315E-01  5.71602E-01  6.62935E-01  7.27490E-01
   7.72463E-01  9.55954E-01  1.45444E+00  2.12344E+00  3.26000E+00  4.17265E+00  4.15327E+00  3.30157E+00  2.38431E+00  1.65523E+00
   1.36947E+00  1.01510E+00  8.63705E-01  7.47020E-01  7.48758E-01  7.64578E-01  7.03693E-01  7.25346E-01  6.67331E-01  5.61106E-01
   5.23928E-01  4.67990E-01  4.99579E-01  4.44127E-01  4.33494E-01  3.73920E-01  4.30306E-01  3.98057E-01  4.21797E-01  4.59144E-01
   5.99871E-01  6.43768E-01  6.69615E-01  6.26723E-01  5.42736E-01  6.41278E-01  6.42817E-01  5.57253E-01  4.78924E-01  3.40599E-01
   2.66898E-01  2.13152E-01  3.14718E-01  3.48282E-01  4.53492E-01  6.69493E-01  6.72837E-01  7.00570E-01  7.45755E-01  9.09565E-01
   9.89793E-01  9.37903E-01  8.58800E-01  7.43901E-01  5.70718E-01  5.79125E-01  5.12642E-01  5.49084E-01  6.10963E-01  6.30903E-01
   7.58475E-01  8.33410E-01  8.72960E-01  8.98306E-01  1.02335E+00  1.11102E+00  1.20656E+00  1.15327E+00  1.10912E+00  1.03025E+00
   8.71653E-01  9.29243E-01  1.03804E+00  1.26746E+00  1.71610E+00  1.96140E+00  2.03642E+00  1.88322E+00  1.46797E+00  1.15004E+00
   1.08975E+00  1.20507E+00  1.42050E+00  1.60738E+00  1.60808E+00  1.54136E+00  1.40699E+00  1.38101E+00  1.26756E+00  1.30553E+00
   1.20630E+00  1.21366E+00  1.26842E+00  1.24546E+00  1.31723E+00  1.30862E+00  1.30321E+00  1.23668E+00  1.29436E+00  1.42902E+00
   1.64613E+00  1.74397E+00  1.88205E+00  1.80146E+00  1.92009E+00  1.98542E+00  2.20790E+00  2.52553E+00  2.95436E+00  3.64801E+00
   4.76707E+00  6.34294E+00  6.97697E+00  6.11254E+00  4.34472E+00  3.00105E+00  2.07780E+00  1.62412E+00  1.26649E+00  1.11238E+00
   8.92687E-01  8.54222E-01  7.54463E-01  7.12412E-01  6.15824E-01  6.51555E-01  6.11460E-01  6.04582E-01  5.86685E-01  5.83703E-01
   5.77326E-01  6.26773E-01  5.65749E-01  5.53760E-01  4.74923E-01  5.28894E-01  4.77605E-01  4.42066E-01  4.68497E-01  4.46680E-01
   4.72614E-01  4.08593E-01  3.99031E-01  3.75278E-01  4.37643E-01  3.98643E-01  3.84345E-01  3.37513E-01  3.34356E-01  3.32620E-01
   3.18678E-01  4.00051E-01  3.58838E-01  4.03915E-01  3.59623E-01  4.23638E-01  3.72320E-01  3.19492E-01  2.50912E-01  2.16341E-01
   1.80775E-01  2.14605E-01  1.96658E-01  1.71736E-01  2.26407E-01  2.38617E-01  2.33163E-01  2.21034E-01  2.33673E-01  2.28306E-01
   3.32347E-01  4.18494E-01  4.45609E-01  4.86036E-01  5.56603E-01  6.25101E-01  6.00970E-01  6.04561E-01  6.43746E-01  6.60455E-01
   6.88276E-01  6.36315E-01  6.35315E-01  5.14680E-01  4.38149E-01  3.69624E-01  3.90049E-01  3.22773E-01  3.01449E-01  2.66122E-01
   1.95765E-01  2.07774E-01  1.80758E-01  1.79231E-01  2.21345E-01  1.92743E-01  1.49013E-01  2.27615E-01  1.40711E-01  1.88894E-01
   1.43947E-01  1.37096E-01  2.00878E-01  1.52853E-01  1.15748E-01  5.96087E-02  1.28849E-01  7.45973E-02  7.98068E-02  9.30461E-02
   1.05843E-01  1.08055E-01  5.94788E-02  1.23865E-01  1.41458E-01  1.76641E-01  1.92850E-01  2.68071E-01  3.39456E-01  3.80954E-01
   4.30596E-01  5.10007E-01  5.42300E-01  5.83084E-01  5.94155E-01  6.34499E-01  7.03201E-01  6.78701E-01  7.03541E-01  7.23469E-01
   6.94664E-01  6.49712E-01  6.32289E-01  5.37476E-01  5.20707E-01  4.77834E-01  3.43296E-01  3.24498E-01  2.71249E-01  2.06019E-01
   2.28960E-01  1.85244E-01  1.54090E-01  5.60849E-02  8.69056E-02  9.21056E-02  2.49731E-02  2.36043E-02  8.89427E-02  8.60661E-02
   6.22527E-02  3.48089E-02  2.71357E-02  1.94059E-02  3.80817E-02  9.60439E-03  7.09017E-03 -2.46747E-02 -5.38947E-03  1.31544E-02
  -1.17095E-02  2.55476E-02 -3.56683E-03  2.95270E-02  5.26515E-02  5.96184E-02  7.29241E-02
 NY points of the fit to the data follow
   4.66063E-01  3.69441E-01  3.05001E-01  2.70925E-01  2.78269E-01  3.35865E-01  4.23577E-01  5.91274E-01  8.87695E-01  1.29396E+00
   1.73997E+00  1.99461E+00  2.10154E+00  2.09713E+00  1.86490E+00  1.45508E+00  1.08915E+00  8.24482E-01  6.93877E-01  6.65937E-01
   7.08620E-01  7.87160E-01  8.84735E-01  9.81220E-01  1.11526E+00  1.24251E+00  1.39654E+00  1.55495E+00  1.70185E+00  1.77043E+00
   1.74887E+00  1.60055E+00  1.45287E+00  1.36689E+00  1.34512E+00  1.31637E+00  1.26014E+00  1.17165E+00  1.13963E+00  1.21902E+00
   1.41621E+00  1.55764E+00  1.46264E+00  1.18752E+00  9.43929E-01  8.49661E-01  9.38551E-01  1.20713E+00  1.60141E+00  1.93741E+00
   2.04130E+00  1.94165E+00  1.70198E+00  1.40271E+00  1.14921E+00  1.00108E+00  9.50453E-01  9.52712E-01  9.44959E-01  9.21962E-01
   8.71517E-01  7.96584E-01  7.22222E-01  6.71682E-01  6.36111E-01  6.10556E-01  5.95353E-01  5.99345E-01  6.12029E-01  6.28257E-01
   6.41602E-01  6.53314E-01  6.35467E-01  5.68330E-01  4.87376E-01  4.53160E-01  4.73679E-01  5.58026E-01  6.65757E-01  7.98973E-01
   9.18571E-01  1.01956E+00  1.08558E+00  1.30553E+00  1.71753E+00  2.39207E+00  2.86004E+00  2.73570E+00  2.15376E+00  1.57481E+00
   1.15233E+00  9.30025E-01  7.87242E-01  6.99912E-01  6.57085E-01  6.39947E-01  6.45853E-01  6.72943E-01  7.23095E-01  8.05283E-01
   9.28128E-01  1.11148E+00  1.47348E+00  2.14237E+00  3.11456E+00  3.94137E+00  4.01788E+00  3.32041E+00  2.39142E+00  1.67988E+00
   1.26233E+00  1.01691E+00  8.55394E-01  7.73784E-01  7.52222E-01  7.55293E-01  7.40286E-01  6.84033E-01  6.09470E-01  5.55165E-01
   5.32146E-01  5.10829E-01  4.78027E-01  4.43778E-01  4.25407E-01  4.24310E-01  4.37696E-01  4.56238E-01  4.83006E-01  5.42262E-01
   6.25254E-01  6.94869E-01  6.69638E-01  5.97323E-01  5.87207E-01  6.68248E-01  6.75250E-01  5.50567E-01  3.74919E-01  2.60333E-01
   2.13044E-01  2.14060E-01  2.54330E-01  3.53867E-01  4.97498E-01  6.02075E-01  6.43887E-01  6.61024E-01  7.59768E-01  8.70367E-01
   9.18122E-01  8.66494E-01  7.79160E-01  6.67170E-01  5.74834E-01  5.20480E-01  5.31799E-01  5.58542E-01  5.94054E-01  6.35001E-01
   7.30358E-01  8.84606E-01  1.01166E+00  1.08593E+00  1.14217E+00  1.21558E+00  1.28453E+00  1.29105E+00  1.22002E+00  1.11868E+00
   1.00721E+00  9.34898E-01  9.46066E-01  1.17045E+00  1.59649E+00  2.03508E+00  2.17225E+00  1.92219E+00  1.47943E+00  1.14217E+00
   1.03950E+00  1.19441E+00  1.42975E+00  1.54462E+00  1.48468E+00  1.35306E+00  1.24737E+00  1.21000E+00  1.20817E+00  1.20730E+00
   1.20721E+00  1.21229E+00  1.23975E+00  1.29458E+00  1.34859E+00  1.37270E+00  1.35825E+00  1.33917E+00  1.38201E+00  1.50696E+00
   1.65068E+00  1.74158E+00  1.77614E+00  1.78786E+00  1.84257E+00  1.98726E+00  2.22739E+00  2.57031E+00  2.91734E+00  3.64425E+00
   4.77123E+00  6.34510E+00  6.98031E+00  6.05936E+00  4.32896E+00  2.98062E+00  2.10761E+00  1.68151E+00  1.31118E+00  1.05970E+00
   9.12085E-01  8.40163E-01  8.04372E-01  7.76626E-01  7.40486E-01  6.88296E-01  6.24532E-01  5.69805E-01  5.34818E-01  5.22003E-01
   5.23722E-01  5.28609E-01  5.24160E-01  5.09110E-01  4.89416E-01  4.74479E-01  4.67600E-01  4.66079E-01  4.64437E-01  4.60143E-01
   4.53583E-01  4.46267E-01  4.39139E-01  4.32626E-01  4.25702E-01  4.17225E-01  4.06817E-01  3.94903E-01  3.81967E-01  3.68487E-01
   3.54652E-01  3.40793E-01  3.27155E-01  3.13976E-01  3.01469E-01  2.89846E-01  2.79278E-01  2.69903E-01  2.61833E-01  2.55185E-01
   2.50086E-01  2.46707E-01  2.45290E-01  2.46139E-01  2.49611E-01  2.56113E-01  2.66091E-01  2.79980E-01  2.98137E-01  3.20760E-01
   3.47805E-01  3.78905E-01  4.13309E-01  4.49853E-01  4.86999E-01  5.22913E-01  5.55581E-01  5.82961E-01  6.03191E-01  6.14768E-01
   6.16720E-01  6.08704E-01  5.91047E-01  5.64712E-01  5.31186E-01  4.92321E-01  4.50147E-01  4.06677E-01  3.63736E-01  3.22828E-01
   2.85070E-01  2.51165E-01  2.21429E-01  1.95853E-01  1.74181E-01  1.56002E-01  1.40829E-01  1.28173E-01  1.17589E-01  1.08711E-01
   1.01265E-01  9.50723E-02  9.00411E-02  8.61625E-02  8.35120E-02  8.22364E-02  8.25412E-02  8.46867E-02  8.89871E-02  9.58079E-02
   1.05563E-01  1.18701E-01  1.35687E-01  1.56968E-01  1.82928E-01  2.13833E-01  2.49763E-01  2.90545E-01  3.35688E-01  3.84335E-01
   4.35241E-01  4.86783E-01  5.37035E-01  5.83866E-01  6.25085E-01  6.58607E-01  6.82636E-01  6.95819E-01  6.97380E-01  6.87195E-01
   6.65801E-01  6.34346E-01  5.94479E-01  5.48191E-01  4.97648E-01  4.45008E-01  3.92273E-01  3.41167E-01  2.93057E-01  2.48920E-01
   2.09353E-01  1.74605E-01  1.44650E-01  1.19248E-01  9.80172E-02  8.04991E-02  6.62042E-02  5.46529E-02  4.54002E-02  3.80521E-02
   3.22705E-02  2.77718E-02  2.43214E-02  2.17281E-02  1.98388E-02  1.85307E-02  1.77064E-02  1.72875E-02  1.72112E-02  1.74264E-02
   1.78912E-02  1.85709E-02  1.94363E-02  2.04628E-02  2.16294E-02  2.29175E-02  2.43112E-02
 NY background values follow
    -1.396E-01   -1.204E-01   -1.011E-01   -8.182E-02   -6.257E-02   -4.339E-02   -2.430E-02   -5.342E-03    1.346E-02    3.208E-02
     5.048E-02    6.864E-02    8.651E-02    1.041E-01    1.213E-01    1.382E-01    1.546E-01    1.706E-01    1.862E-01    2.013E-01
     2.160E-01    2.301E-01    2.437E-01    2.568E-01    2.693E-01    2.813E-01    2.927E-01    3.035E-01    3.136E-01    3.232E-01
     3.320E-01    3.403E-01    3.478E-01    3.546E-01    3.608E-01    3.663E-01    3.712E-01    3.755E-01    3.793E-01    3.825E-01
     3.851E-01    3.873E-01    3.890E-01    3.902E-01    3.911E-01    3.915E-01    3.916E-01    3.913E-01    3.906E-01    3.897E-01
     3.885E-01    3.871E-01    3.855E-01    3.836E-01    3.817E-01    3.796E-01    3.774E-01    3.751E-01    3.728E-01    3.705E-01
     3.682E-01    3.660E-01    3.638E-01    3.618E-01    3.599E-01    3.581E-01    3.565E-01    3.550E-01    3.536E-01    3.522E-01
     3.509E-01    3.496E-01    3.483E-01    3.470E-01    3.457E-01    3.443E-01    3.428E-01    3.413E-01    3.396E-01    3.378E-01
     3.358E-01    3.337E-01    3.315E-01    3.291E-01    3.266E-01    3.240E-01    3.213E-01    3.186E-01    3.158E-01    3.130E-01
     3.102E-01    3.075E-01    3.047E-01    3.020E-01    2.994E-01    2.968E-01    2.944E-01    2.920E-01    2.898E-01    2.876E-01
     2.855E-01    2.835E-01    2.815E-01    2.796E-01    2.777E-01    2.758E-01    2.740E-01    2.722E-01    2.703E-01    2.685E-01
     2.666E-01    2.648E-01    2.628E-01    2.609E-01    2.589E-01    2.569E-01    2.549E-01    2.530E-01    2.510E-01    2.490E-01
     2.471E-01    2.453E-01    2.434E-01    2.417E-01    2.400E-01    2.384E-01    2.369E-01    2.355E-01    2.342E-01    2.330E-01
     2.319E-01    2.309E-01    2.299E-01    2.290E-01    2.281E-01    2.272E-01    2.264E-01    2.255E-01    2.246E-01    2.237E-01
     2.227E-01    2.217E-01    2.205E-01    2.193E-01    2.180E-01    2.165E-01    2.151E-01    2.135E-01    2.120E-01    2.104E-01
     2.089E-01    2.074E-01    2.060E-01    2.047E-01    2.036E-01    2.026E-01    2.017E-01    2.011E-01    2.006E-01    2.005E-01
     2.006E-01    2.009E-01    2.015E-01    2.024E-01    2.034E-01    2.047E-01    2.062E-01    2.079E-01    2.098E-01    2.118E-01
     2.140E-01    2.163E-01    2.187E-01    2.213E-01    2.240E-01    2.268E-01    2.296E-01    2.325E-01    2.355E-01    2.384E-01
     2.414E-01    2.443E-01    2.472E-01    2.501E-01    2.528E-01    2.554E-01    2.580E-01    2.603E-01    2.625E-01    2.645E-01
     2.662E-01    2.678E-01    2.690E-01    2.701E-01    2.709E-01    2.715E-01    2.718E-01    2.720E-01    2.720E-01    2.718E-01
     2.714E-01    2.709E-01    2.703E-01    2.695E-01    2.686E-01    2.676E-01    2.665E-01    2.653E-01    2.641E-01    2.628E-01
     2.614E-01    2.599E-01    2.584E-01    2.567E-01    2.550E-01    2.532E-01    2.514E-01    2.494E-01    2.474E-01    2.452E-01
     2.430E-01    2.407E-01    2.383E-01    2.358E-01    2.333E-01    2.306E-01    2.278E-01    2.250E-01    2.220E-01    2.190E-01
     2.159E-01    2.127E-01    2.094E-01    2.060E-01    2.025E-01    1.989E-01    1.953E-01    1.916E-01    1.878E-01    1.839E-01
     1.799E-01    1.758E-01    1.717E-01    1.675E-01    1.632E-01    1.589E-01    1.545E-01    1.501E-01    1.457E-01    1.412E-01
     1.366E-01    1.321E-01    1.275E-01    1.229E-01    1.183E-01    1.137E-01    1.091E-01    1.044E-01    9.984E-02    9.524E-02
     9.066E-02    8.609E-02    8.154E-02    7.701E-02    7.251E-02    6.805E-02    6.362E-02    5.923E-02    5.488E-02    5.058E-02
     4.632E-02    4.213E-02    3.799E-02    3.391E-02    2.990E-02    2.597E-02    2.211E-02    1.833E-02    1.465E-02    1.105E-02
     7.549E-03    4.150E-03    8.583E-04   -2.323E-03   -5.388E-03   -8.332E-03   -1.115E-02   -1.384E-02   -1.640E-02   -1.885E-02
    -2.118E-02   -2.342E-02   -2.558E-02   -2.765E-02   -2.965E-02   -3.159E-02   -3.349E-02   -3.534E-02   -3.716E-02   -3.897E-02
    -4.076E-02   -4.255E-02   -4.434E-02   -4.616E-02   -4.798E-02   -4.982E-02   -5.164E-02   -5.346E-02   -5.525E-02   -5.700E-02
    -5.871E-02   -6.037E-02   -6.196E-02   -6.348E-02   -6.491E-02   -6.625E-02   -6.749E-02   -6.861E-02   -6.962E-02   -7.049E-02
    -7.123E-02   -7.184E-02   -7.232E-02   -7.268E-02   -7.293E-02   -7.305E-02   -7.307E-02   -7.298E-02   -7.279E-02   -7.249E-02
    -7.209E-02   -7.161E-02   -7.103E-02   -7.036E-02   -6.961E-02   -6.878E-02   -6.787E-02   -6.689E-02   -6.582E-02   -6.468E-02
    -6.346E-02   -6.217E-02   -6.080E-02   -5.936E-02   -5.784E-02   -5.625E-02   -5.459E-02   -5.286E-02   -5.105E-02   -4.918E-02
    -4.723E-02   -4.522E-02   -4.314E-02   -4.100E-02   -3.880E-02   -3.655E-02   -3.425E-02   -3.191E-02   -2.952E-02   -2.710E-02
    -2.464E-02   -2.215E-02   -1.964E-02   -1.710E-02   -1.455E-02   -1.198E-02   -9.403E-03
 Asc      Conc. = 2.00E+00
  -9.63460E-02 -6.98353E-02 -4.44570E-02 -2.36625E-02 -1.02536E-02  9.37991E-04  1.34992E-02  3.04291E-02  4.72638E-02  6.30029E-02
   7.60000E-02  8.91823E-02  1.03140E-01  1.18174E-01  1.33840E-01  1.49782E-01  1.65874E-01  1.82172E-01  1.98566E-01  2.15042E-01
   2.30915E-01  2.46115E-01  2.61475E-01  2.78475E-01  2.98398E-01  3.19096E-01  3.44495E-01  3.79325E-01  4.24970E-01  4.65715E-01
   4.72023E-01  4.56140E-01  4.51456E-01  4.76430E-01  5.02289E-01  4.99509E-01  4.70560E-01  4.42413E-01  4.23385E-01  4.14343E-01
   4.08210E-01  4.04037E-01  4.01954E-01  4.00975E-01  4.00246E-01  3.99194E-01  3.97905E-01  3.96563E-01  3.95158E-01  3.93667E-01
   3.92010E-01  3.90208E-01  3.88263E-01  3.86184E-01  3.83989E-01  3.81700E-01  3.79341E-01  3.76932E-01  3.74501E-01  3.72069E-01
   3.69668E-01  3.67332E-01  3.65094E-01  3.62980E-01  3.61016E-01  3.59203E-01  3.57523E-01  3.55955E-01  3.54478E-01  3.53071E-01
   3.51716E-01  3.50389E-01  3.49072E-01  3.47744E-01  3.46384E-01  3.44971E-01  3.43485E-01  3.41904E-01  3.40210E-01  3.38381E-01
   3.36397E-01  3.34255E-01  3.31969E-01  3.29559E-01  3.27042E-01  3.24434E-01  3.21753E-01  3.19015E-01  3.16240E-01  3.13443E-01
   3.10642E-01  3.07854E-01  3.05097E-01  3.02388E-01  2.99744E-01  2.97182E-01  2.94720E-01  2.92360E-01  2.90095E-01  2.87914E-01
   2.85809E-01  2.83771E-01  2.81788E-01  2.79854E-01  2.77958E-01  2.76092E-01  2.74246E-01  2.72409E-01  2.70575E-01  2.68732E-01
   2.66873E-01  2.64987E-01  2.63066E-01  2.61112E-01  2.59134E-01  2.57142E-01  2.55146E-01  2.53155E-01  2.51179E-01  2.49227E-01
   2.47309E-01  2.45435E-01  2.43614E-01  2.41856E-01  2.40171E-01  2.38568E-01  2.37057E-01  2.35647E-01  2.34348E-01  2.33152E-01
   2.32047E-01  2.31017E-01  2.30049E-01  2.29129E-01  2.28242E-01  2.27374E-01  2.26511E-01  2.25638E-01  2.24742E-01  2.23809E-01
   2.22823E-01  2.21771E-01  2.20640E-01  2.19413E-01  2.18081E-01  2.16657E-01  2.15164E-01  2.13626E-01  2.12069E-01  2.10516E-01
   2.08991E-01  2.07519E-01  2.06124E-01  2.04830E-01  2.03662E-01  2.02643E-01  2.01798E-01  2.01152E-01  2.00728E-01  2.00550E-01
   2.00640E-01  2.00993E-01  2.01598E-01  2.02442E-01  2.03513E-01  2.04799E-01  2.06288E-01  2.07967E-01  2.09826E-01  2.11851E-01
   2.14030E-01  2.16352E-01  2.18803E-01  2.21373E-01  2.24048E-01  2.26818E-01  2.29667E-01  2.32578E-01  2.35527E-01  2.38495E-01
   2.41461E-01  2.44401E-01  2.47297E-01  2.50125E-01  2.52866E-01  2.55497E-01  2.57998E-01  2.60348E-01  2.62524E-01  2.64506E-01
   2.66273E-01  2.67803E-01  2.69081E-01  2.70114E-01  2.70915E-01  2.71493E-01  2.71862E-01  2.72032E-01  2.72015E-01  2.71823E-01
   2.71467E-01  2.70960E-01  2.70312E-01  2.69536E-01  2.68642E-01  2.67643E-01  2.66550E-01  2.65375E-01  2.64126E-01  2.62804E-01
   2.61406E-01  2.59933E-01  2.58382E-01  2.56753E-01  2.55043E-01  2.53252E-01  2.51379E-01  2.49422E-01  2.47380E-01  2.45252E-01
   2.43036E-01  2.40731E-01  2.38336E-01  2.35849E-01  2.33270E-01  2.30600E-01  2.27838E-01  2.24985E-01  2.22042E-01  2.19009E-01
   2.15888E-01  2.12677E-01  2.09379E-01  2.05993E-01  2.02520E-01  1.98959E-01  1.95314E-01  1.91582E-01  1.87766E-01  1.83866E-01
   1.79883E-01  1.75823E-01  1.71690E-01  1.67490E-01  1.63228E-01  1.58908E-01  1.54536E-01  1.50117E-01  1.45657E-01  1.41159E-01
   1.36629E-01  1.32072E-01  1.27494E-01  1.22899E-01  1.18292E-01  1.13678E-01  1.09062E-01  1.04448E-01  9.98397E-02  9.52402E-02
   9.06535E-02  8.60834E-02  8.15339E-02  7.70084E-02  7.25105E-02  6.80445E-02  6.36134E-02  5.92221E-02  5.48730E-02  5.05709E-02
   4.63187E-02  4.21208E-02  3.79812E-02  3.39046E-02  2.98961E-02  2.59601E-02  2.21016E-02  1.83256E-02  1.46367E-02  1.10396E-02
   7.53924E-03  4.14036E-03  8.47823E-04 -2.33372E-03 -5.39914E-03 -8.34391E-03 -1.11632E-02 -1.38525E-02 -1.64151E-02 -1.88604E-02
  -2.11980E-02 -2.34376E-02 -2.55887E-02 -2.76612E-02 -2.96645E-02 -3.16082E-02 -3.35021E-02 -3.53559E-02 -3.71790E-02 -3.89811E-02
  -4.07721E-02 -4.25613E-02 -4.43585E-02 -4.61725E-02 -4.80009E-02 -4.98341E-02 -5.16622E-02 -5.34755E-02 -5.52642E-02 -5.70184E-02
  -5.87284E-02 -6.03843E-02 -6.19763E-02 -6.34946E-02 -6.49295E-02 -6.62711E-02 -6.75096E-02 -6.86352E-02 -6.96381E-02 -7.05094E-02
  -7.12482E-02 -7.18580E-02 -7.23424E-02 -7.27048E-02 -7.29486E-02 -7.30774E-02 -7.30946E-02 -7.30039E-02 -7.28085E-02 -7.25123E-02
  -7.21183E-02 -7.16303E-02 -7.10518E-02 -7.03861E-02 -6.96369E-02 -6.88074E-02 -6.78989E-02 -6.69121E-02 -6.58477E-02 -6.47063E-02
  -6.34886E-02 -6.21954E-02 -6.08271E-02 -5.93846E-02 -5.78683E-02 -5.62791E-02 -5.46176E-02 -5.28843E-02 -5.10801E-02 -4.92055E-02
  -4.72611E-02 -4.52483E-02 -4.31700E-02 -4.10304E-02 -3.88334E-02 -3.65829E-02 -3.42829E-02 -3.19374E-02 -2.95504E-02 -2.71258E-02
  -2.46676E-02 -2.21797E-02 -1.96662E-02 -1.71309E-02 -1.45779E-02 -1.20112E-02 -9.43437E-03
 Asp      Conc. = 7.56E+00
  -1.22107E-01 -9.93792E-02 -7.53187E-02 -4.91808E-02 -2.07772E-02  7.91404E-03  4.42081E-02  8.39543E-02  1.23322E-01  1.35131E-01
   1.26530E-01  1.25543E-01  1.52623E-01  1.79413E-01  1.94556E-01  2.13411E-01  2.37994E-01  2.46197E-01  2.40484E-01  2.56118E-01
   2.97006E-01  3.32497E-01  3.41218E-01  3.35757E-01  3.28642E-01  3.27632E-01  3.29553E-01  3.32853E-01  3.37683E-01  3.43285E-01
   3.49126E-01  3.54891E-01  3.60420E-01  3.65376E-01  3.69656E-01  3.73142E-01  3.76505E-01  3.80190E-01  3.83947E-01  3.87193E-01
   3.89815E-01  3.91770E-01  3.93250E-01  3.94264E-01  3.94851E-01  3.95051E-01  3.94892E-01  3.94400E-01  3.93600E-01  3.92516E-01
   3.91178E-01  3.89611E-01  3.87846E-01  3.85909E-01  3.83829E-01  3.81634E-01  3.79354E-01  3.77015E-01  3.74647E-01  3.72279E-01
   3.69939E-01  3.67655E-01  3.65458E-01  3.63375E-01  3.61434E-01  3.59647E-01  3.57994E-01  3.56455E-01  3.55009E-01  3.53637E-01
   3.52317E-01  3.51028E-01  3.49752E-01  3.48468E-01  3.47155E-01  3.45792E-01  3.44360E-01  3.42838E-01  3.41207E-01  3.39447E-01
   3.37537E-01  3.35475E-01  3.33277E-01  3.30962E-01  3.28547E-01  3.26052E-01  3.23493E-01  3.20890E-01  3.18261E-01  3.15625E-01
   3.13001E-01  3.10409E-01  3.07868E-01  3.05397E-01  3.03018E-01  3.00752E-01  2.98621E-01  2.96633E-01  2.94787E-01  2.93083E-01
   2.91520E-01  2.90105E-01  2.88844E-01  2.87752E-01  2.86849E-01  2.86166E-01  2.85752E-01  2.85681E-01  2.86070E-01  2.87113E-01
   2.89148E-01  2.92708E-01  2.97480E-01  3.03155E-01  3.14154E-01  3.27183E-01  3.36740E-01  3.26726E-01  3.06827E-01  2.97197E-01
   3.04520E-01  3.00688E-01  2.79110E-01  2.51243E-01  2.33750E-01  2.26171E-01  2.26967E-01  2.29129E-01  2.37547E-01  2.55000E-01
   2.85537E-01  3.12045E-01  3.20960E-01  3.24239E-01  3.56283E-01  4.06281E-01  4.20257E-01  3.74002E-01  3.07857E-01  2.60080E-01
   2.39629E-01  2.45326E-01  2.71488E-01  3.16977E-01  3.46480E-01  3.39322E-01  3.10247E-01  2.83883E-01  2.72580E-01  2.78134E-01
   2.94102E-01  2.98963E-01  2.79508E-01  2.47178E-01  2.18424E-01  2.00533E-01  1.97807E-01  2.15729E-01  2.48198E-01  2.72119E-01
   2.74540E-01  2.65573E-01  2.53911E-01  2.45933E-01  2.40388E-01  2.36179E-01  2.33579E-01  2.32131E-01  2.31513E-01  2.31521E-01
