 LCModel (Version 6.3-0D) Copyright: S.W. Provencher.          Ref.: Magn. Reson. Med. 30:672-679 (1993).                
 S01_PRESS_35
 Data of: Dept of Radiology, The Johns Hopkins University School of Medicine
 17-March-2020  16:31
 32 lines in following concentration table = NCONC+1
    Conc.  %SD /Cr+PCr  Metabolite                                         
    0.892  63%   0.409 Asc                                                 
    9.751  12%   4.470 Asp                                                 
    3.577  17%   1.640 Cr                                                  
    1.673  40%   0.767 GABA                                                
    2.497  17%   1.145 GPC                                                 
    2.307  10%   1.058 GSH                                                 
    3.261  28%   1.495 Gln                                                 
   25.615   4%  11.741 Glu                                                 
   15.529   4%   7.118 Ins                                                 
    0.000 999%   0.000 Lac                                                 
   20.542   2%   9.416 NAA                                                 
    3.773  10%   1.729 NAAG                                                
    0.548  74%   0.251 PCh                                                 
   13.876   5%   6.360 PCr                                                 
    2.313  53%   1.060 PE                                                  
    0.742  14%   0.340 Scyllo                                              
    2.309  35%   1.058 Tau                                                 
    6.082   7%   2.788 -CrCH2                                              
    3.046   3%   1.396 PCh+GPC                                             
   17.454   2%   8.000 Cr+PCr                                              
   24.315   1%  11.145 NAA+NAAG                                            
   28.876   5%  13.236 Glu+Gln                                             
   46.036  17%  21.101 Lip13a                                              
    0.000 999%   0.000 Lip13b                                              
   12.332  20%   5.653 Lip09                                               
   12.830  18%   5.881 MM09                                                
    8.850  13%   4.056 Lip20                                               
   16.250  22%   7.448 MM20                                                
    7.111  22%   3.259 MM12                                                
   12.136  21%   5.563 MM14                                                
    5.746  31%   2.634 MM17                                                
   6 lines in following misc. output table
  FWHM = 0.038 ppm    S/N =  45                                            
  Data shift = 0.000 ppm                                                   
  Ph:  10 deg       3.5 deg/ppm                                            
  alphaB,S = 2.8E-02,   5.1E+01                                            
   26 spline knots.   Ns =10(1)                                            
  ( 5) 4 infls.   ( 3) 3 extrs.                                            
  734 points on ppm-axis = NY
      4.000000     3.995223     3.990446     3.985669     3.980892     3.976115     3.971338     3.966561     3.961784     3.957007
      3.952230     3.947453     3.942677     3.937900     3.933123     3.928346     3.923569     3.918792     3.914015     3.909238
      3.904461     3.899684     3.894907     3.890130     3.885353     3.880576     3.875799     3.871022     3.866245     3.861468
      3.856691     3.851914     3.847137     3.842360     3.837584     3.832807     3.828030     3.823253     3.818476     3.813699
      3.808922     3.804145     3.799368     3.794591     3.789814     3.785037     3.780260     3.775483     3.770706     3.765929
      3.761152     3.756375     3.751598     3.746821     3.742044     3.737267     3.732491     3.727714     3.722937     3.718160
      3.713383     3.708606     3.703829     3.699052     3.694275     3.689498     3.684721     3.679944     3.675167     3.670390
      3.665613     3.660836     3.656059     3.651282     3.646505     3.641728     3.636951     3.632174     3.627398     3.622621
      3.617844     3.613067     3.608290     3.603513     3.598736     3.593959     3.589182     3.584405     3.579628     3.574851
      3.570074     3.565297     3.560520     3.555743     3.550966     3.546189     3.541412     3.536635     3.531858     3.527081
      3.522305     3.517528     3.512751     3.507974     3.503197     3.498420     3.493643     3.488866     3.484089     3.479312
      3.474535     3.469758     3.464981     3.460204     3.455427     3.450650     3.445873     3.441096     3.436319     3.431542
      3.426765     3.421988     3.417212     3.412435     3.407658     3.402881     3.398104     3.393327     3.388550     3.383773
      3.378996     3.374219     3.369442     3.364665     3.359888     3.355111     3.350334     3.345557     3.340780     3.336003
      3.331226     3.326449     3.321672     3.316895     3.312119     3.307342     3.302565     3.297788     3.293011     3.288234
      3.283457     3.278680     3.273903     3.269126     3.264349     3.259572     3.254795     3.250018     3.245241     3.240464
      3.235687     3.230910     3.226133     3.221356     3.216579     3.211802     3.207026     3.202249     3.197472     3.192695
      3.187918     3.183141     3.178364     3.173587     3.168810     3.164033     3.159256     3.154479     3.149702     3.144925
      3.140148     3.135371     3.130594     3.125817     3.121040     3.116263     3.111486     3.106709     3.101933     3.097156
      3.092379     3.087602     3.082825     3.078048     3.073271     3.068494     3.063717     3.058940     3.054163     3.049386
      3.044609     3.039832     3.035055     3.030278     3.025501     3.020724     3.015947     3.011170     3.006393     3.001616
      2.996840     2.992063     2.987286     2.982509     2.977732     2.972955     2.968178     2.963401     2.958624     2.953847
      2.949070     2.944293     2.939516     2.934739     2.929962     2.925185     2.920408     2.915631     2.910854     2.906077
      2.901300     2.896523     2.891747     2.886970     2.882193     2.877416     2.872639     2.867862     2.863085     2.858308
      2.853531     2.848754     2.843977     2.839200     2.834423     2.829646     2.824869     2.820092     2.815315     2.810538
      2.805761     2.800984     2.796207     2.791430     2.786654     2.781877     2.777100     2.772323     2.767546     2.762769
      2.757992     2.753215     2.748438     2.743661     2.738884     2.734107     2.729330     2.724553     2.719776     2.714999
      2.710222     2.705445     2.700668     2.695891     2.691114     2.686337     2.681561     2.676784     2.672007     2.667230
      2.662453     2.657676     2.652899     2.648122     2.643345     2.638568     2.633791     2.629014     2.624237     2.619460
      2.614683     2.609906     2.605129     2.600352     2.595575     2.590798     2.586021     2.581244     2.576468     2.571691
      2.566914     2.562137     2.557360     2.552583     2.547806     2.543029     2.538252     2.533475     2.528698     2.523921
      2.519144     2.514367     2.509590     2.504813     2.500036     2.495259     2.490482     2.485705     2.480928     2.476151
      2.471375     2.466598     2.461821     2.457044     2.452267     2.447490     2.442713     2.437936     2.433159     2.428382
      2.423605     2.418828     2.414051     2.409274     2.404497     2.399720     2.394943     2.390166     2.385389     2.380612
      2.375835     2.371058     2.366282     2.361505     2.356728     2.351951     2.347174     2.342397     2.337620     2.332843
      2.328066     2.323289     2.318512     2.313735     2.308958     2.304181     2.299404     2.294627     2.289850     2.285073
      2.280296     2.275519     2.270742     2.265965     2.261189     2.256412     2.251635     2.246858     2.242081     2.237304
      2.232527     2.227750     2.222973     2.218196     2.213419     2.208642     2.203865     2.199088     2.194311     2.189534
      2.184757     2.179980     2.175203     2.170426     2.165649     2.160872     2.156096     2.151319     2.146542     2.141765
      2.136988     2.132211     2.127434     2.122657     2.117880     2.113103     2.108326     2.103549     2.098772     2.093995
      2.089218     2.084441     2.079664     2.074887     2.070110     2.065333     2.060556     2.055779     2.051003     2.046226
      2.041449     2.036672     2.031895     2.027118     2.022341     2.017564     2.012787     2.008010     2.003233     1.998456
      1.993679     1.988902     1.984125     1.979348     1.974571     1.969794     1.965017     1.960240     1.955463     1.950686
      1.945910     1.941133     1.936356     1.931579     1.926802     1.922025     1.917248     1.912471     1.907694     1.902917
      1.898140     1.893363     1.888586     1.883809     1.879032     1.874255     1.869478     1.864701     1.859924     1.855147
      1.850370     1.845593     1.840816     1.836040     1.831263     1.826486     1.821709     1.816932     1.812155     1.807378
      1.802601     1.797824     1.793047     1.788270     1.783493     1.778716     1.773939     1.769162     1.764385     1.759608
      1.754831     1.750054     1.745277     1.740500     1.735723     1.730947     1.726170     1.721393     1.716616     1.711839
      1.707062     1.702285     1.697508     1.692731     1.687954     1.683177     1.678400     1.673623     1.668846     1.664069
      1.659292     1.654515     1.649738     1.644961     1.640184     1.635407     1.630630     1.625854     1.621077     1.616300
      1.611523     1.606746     1.601969     1.597192     1.592415     1.587638     1.582861     1.578084     1.573307     1.568530
      1.563753     1.558976     1.554199     1.549422     1.544645     1.539868     1.535091     1.530314     1.525537     1.520761
      1.515984     1.511207     1.506430     1.501653     1.496876     1.492099     1.487322     1.482545     1.477768     1.472991
      1.468214     1.463437     1.458660     1.453883     1.449106     1.444329     1.439552     1.434775     1.429998     1.425221
      1.420444     1.415668     1.410891     1.406114     1.401337     1.396560     1.391783     1.387006     1.382229     1.377452
      1.372675     1.367898     1.363121     1.358344     1.353567     1.348790     1.344013     1.339236     1.334459     1.329682
      1.324905     1.320128     1.315351     1.310575     1.305798     1.301021     1.296244     1.291467     1.286690     1.281913
      1.277136     1.272359     1.267582     1.262805     1.258028     1.253251     1.248474     1.243697     1.238920     1.234143
      1.229366     1.224589     1.219812     1.215035     1.210258     1.205482     1.200705     1.195928     1.191151     1.186374
      1.181597     1.176820     1.172043     1.167266     1.162489     1.157712     1.152935     1.148158     1.143381     1.138604
      1.133827     1.129050     1.124273     1.119496     1.114719     1.109942     1.105165     1.100389     1.095612     1.090835
      1.086058     1.081281     1.076504     1.071727     1.066950     1.062173     1.057396     1.052619     1.047842     1.043065
      1.038288     1.033511     1.028734     1.023957     1.019180     1.014403     1.009626     1.004849     1.000072     0.995296
      0.990519     0.985742     0.980965     0.976188     0.971411     0.966634     0.961857     0.957080     0.952303     0.947526
      0.942749     0.937972     0.933195     0.928418     0.923641     0.918864     0.914087     0.909310     0.904533     0.899756
      0.894979     0.890203     0.885426     0.880649     0.875872     0.871095     0.866318     0.861541     0.856764     0.851987
      0.847210     0.842433     0.837656     0.832879     0.828102     0.823325     0.818548     0.813771     0.808994     0.804217
      0.799440     0.794663     0.789886     0.785110     0.780333     0.775556     0.770779     0.766002     0.761225     0.756448
      0.751671     0.746894     0.742117     0.737340     0.732563     0.727786     0.723009     0.718232     0.713455     0.708678
      0.703901     0.699124     0.694347     0.689570     0.684793     0.680017     0.675240     0.670463     0.665686     0.660909
      0.656132     0.651355     0.646578     0.641801     0.637024     0.632247     0.627470     0.622693     0.617916     0.613139
      0.608362     0.603585     0.598808     0.594031     0.589254     0.584477     0.579700     0.574924     0.570147     0.565370
      0.560593     0.555816     0.551039     0.546262     0.541485     0.536708     0.531931     0.527154     0.522377     0.517600
      0.512823     0.508046     0.503269     0.498492
 NY phased data points follow
   1.41275E-01  1.46063E-01  1.92567E-01  2.16871E-01  1.75819E-01  2.44547E-01  2.09553E-01  1.89506E-01  2.21470E-01  2.79065E-01
   3.54237E-01  3.05296E-01  4.22934E-01  4.30825E-01  4.62329E-01  5.67639E-01  6.57313E-01  7.14034E-01  8.19528E-01  9.04530E-01
   1.04104E+00  1.11794E+00  1.24128E+00  1.27324E+00  1.30959E+00  1.31280E+00  1.25676E+00  1.22866E+00  1.10740E+00  9.90458E-01
   8.67923E-01  9.02874E-01  7.86948E-01  7.40348E-01  6.88281E-01  6.39893E-01  6.54665E-01  6.20195E-01  6.28106E-01  6.60244E-01
   6.46511E-01  6.87570E-01  6.77825E-01  7.41287E-01  7.67471E-01  7.62650E-01  7.82049E-01  7.90985E-01  8.72557E-01  8.71775E-01
   9.28877E-01  9.24810E-01  9.19356E-01  9.84000E-01  1.00742E+00  1.04572E+00  1.09203E+00  1.13800E+00  1.14171E+00  1.15251E+00
   1.08986E+00  1.12123E+00  9.76658E-01  1.01646E+00  9.57025E-01  9.15157E-01  9.19677E-01  9.42991E-01  9.95736E-01  9.90460E-01
   9.62707E-01  9.79388E-01  9.30316E-01  8.57913E-01  8.61466E-01  8.19221E-01  8.74865E-01  8.44997E-01  9.76478E-01  1.00753E+00
   1.04221E+00  1.06511E+00  1.11063E+00  1.12153E+00  1.08626E+00  1.04658E+00  9.54895E-01  9.21831E-01  7.91986E-01  7.52100E-01
   6.86827E-01  7.71610E-01  7.91799E-01  8.45812E-01  8.78951E-01  9.73830E-01  1.14378E+00  1.28445E+00  1.30228E+00  1.41588E+00
   1.37235E+00  1.35356E+00  1.33855E+00  1.23437E+00  1.13249E+00  1.01471E+00  8.93047E-01  8.27541E-01  7.65903E-01  6.01540E-01
   6.11841E-01  6.10959E-01  5.88044E-01  6.21622E-01  5.84691E-01  5.90506E-01  5.20272E-01  6.13747E-01  5.72530E-01  5.73683E-01
   4.92339E-01  5.57521E-01  5.32689E-01  5.08673E-01  4.88884E-01  4.73873E-01  4.64556E-01  4.61881E-01  4.67482E-01  4.03006E-01
   4.34035E-01  4.38255E-01  3.95358E-01  3.87675E-01  4.27021E-01  4.34836E-01  4.46396E-01  4.11449E-01  4.28764E-01  5.06828E-01
   5.14519E-01  5.02844E-01  5.56373E-01  5.15268E-01  5.45663E-01  5.71468E-01  4.93825E-01  4.52515E-01  4.06334E-01  3.88117E-01
   3.77323E-01  3.84323E-01  3.86663E-01  4.64075E-01  5.03565E-01  5.58341E-01  5.80569E-01  5.93890E-01  6.64918E-01  6.94490E-01
   7.98540E-01  8.48270E-01  8.53517E-01  8.97793E-01  9.50268E-01  1.01799E+00  1.00332E+00  1.14447E+00  1.21688E+00  1.41458E+00
   1.55071E+00  1.61681E+00  1.69274E+00  1.72435E+00  1.62674E+00  1.46656E+00  1.32940E+00  1.11370E+00  1.01930E+00  8.88027E-01
   8.31434E-01  7.12402E-01  5.95417E-01  6.23507E-01  5.18596E-01  5.67169E-01  5.37193E-01  5.24359E-01  4.43083E-01  4.60130E-01
   5.41118E-01  4.46741E-01  4.70891E-01  5.03685E-01  5.14950E-01  5.56106E-01  5.95897E-01  6.86299E-01  7.19982E-01  7.54377E-01
   8.77789E-01  9.27510E-01  1.06624E+00  1.22865E+00  1.34006E+00  1.52615E+00  1.79480E+00  2.08691E+00  2.25853E+00  2.54474E+00
   2.68685E+00  2.67643E+00  2.64410E+00  2.34171E+00  2.06294E+00  1.78103E+00  1.52728E+00  1.34643E+00  1.13371E+00  1.00913E+00
   9.57776E-01  8.39042E-01  7.26955E-01  6.71177E-01  6.29677E-01  6.05285E-01  5.98038E-01  5.88463E-01  5.40093E-01  5.63312E-01
   4.93169E-01  5.25460E-01  4.76728E-01  5.18461E-01  4.86390E-01  4.49396E-01  4.50190E-01  4.10981E-01  3.90688E-01  3.83341E-01
   3.23138E-01  3.72759E-01  3.79957E-01  3.52338E-01  3.56860E-01  3.11074E-01  3.18255E-01  2.88720E-01  2.98644E-01  2.33858E-01
   2.50923E-01  2.51530E-01  2.83104E-01  3.14093E-01  3.05641E-01  3.17066E-01  3.28899E-01  3.23446E-01  3.99823E-01  3.70412E-01
   4.09136E-01  4.06566E-01  4.22334E-01  4.04769E-01  4.83248E-01  4.31784E-01  4.19880E-01  3.22716E-01  3.33631E-01  3.16220E-01
   3.95136E-01  3.62125E-01  3.96725E-01  4.66731E-01  3.63446E-01  3.28377E-01  3.19017E-01  2.65399E-01  2.17044E-01  2.06676E-01
   2.72767E-01  2.59236E-01  2.30679E-01  2.14813E-01  2.54270E-01  2.71906E-01  3.55205E-01  3.28382E-01  4.16021E-01  4.76302E-01
   4.46526E-01  5.02815E-01  5.71287E-01  5.70053E-01  5.73005E-01  5.23936E-01  6.77981E-01  6.19763E-01  6.59054E-01  6.76872E-01
   6.93464E-01  6.85692E-01  6.62749E-01  6.63657E-01  6.13920E-01  5.74987E-01  5.64899E-01  4.67935E-01  5.07544E-01  4.38231E-01
   3.94048E-01  4.30065E-01  4.65851E-01  4.85570E-01  4.64994E-01  4.84685E-01  5.12330E-01  5.20104E-01  5.79933E-01  5.90607E-01
   6.23061E-01  6.60783E-01  7.20891E-01  7.58182E-01  7.23506E-01  7.48371E-01  7.70693E-01  7.46679E-01  7.60760E-01  8.13760E-01
   8.06183E-01  8.31395E-01  8.54253E-01  8.56831E-01  8.28455E-01  8.52060E-01  8.70250E-01  8.24424E-01  7.97493E-01  8.26068E-01
   8.12431E-01  8.30719E-01  8.11485E-01  9.18653E-01  9.25720E-01  9.33567E-01  1.06646E+00  1.11162E+00  1.16320E+00  1.29934E+00
   1.37287E+00  1.41271E+00  1.40923E+00  1.33543E+00  1.27742E+00  1.18596E+00  1.11819E+00  1.05205E+00  9.95421E-01  8.84724E-01
   9.41036E-01  9.48445E-01  1.00694E+00  1.03006E+00  1.15137E+00  1.16599E+00  1.18046E+00  1.17295E+00  1.13769E+00  1.16231E+00
   1.10500E+00  1.06958E+00  1.07671E+00  1.02624E+00  1.00734E+00  1.01387E+00  9.67342E-01  9.51031E-01  9.14391E-01  9.02818E-01
   9.39173E-01  9.88494E-01  9.51519E-01  9.30673E-01  8.97615E-01  9.31327E-01  9.19019E-01  9.10265E-01  9.78952E-01  9.71363E-01
   9.92274E-01  9.94966E-01  9.76263E-01  9.93359E-01  9.85492E-01  9.92887E-01  1.01911E+00  1.09080E+00  1.13349E+00  1.23074E+00
   1.25876E+00  1.33551E+00  1.33141E+00  1.42155E+00  1.39852E+00  1.46823E+00  1.50861E+00  1.50598E+00  1.61715E+00  1.66707E+00
   1.80367E+00  1.94793E+00  2.07875E+00  2.20157E+00  2.36896E+00  2.42725E+00  2.52791E+00  2.65726E+00  2.86822E+00  3.08427E+00
   3.23216E+00  3.47906E+00  3.72701E+00  3.94988E+00  3.97251E+00  3.74398E+00  3.38030E+00  2.90738E+00  2.32822E+00  2.04752E+00
   1.71306E+00  1.52953E+00  1.34211E+00  1.20320E+00  1.05227E+00  9.25020E-01  7.99909E-01  7.18865E-01  6.81868E-01  5.96096E-01
   5.91010E-01  5.87481E-01  4.84162E-01  4.28328E-01  4.04192E-01  4.07421E-01  3.92195E-01  3.50877E-01  3.27998E-01  3.46208E-01
   3.80073E-01  3.57308E-01  2.97984E-01  3.33679E-01  3.34564E-01  2.73577E-01  3.36958E-01  2.96153E-01  2.64101E-01  3.03712E-01
   2.83061E-01  2.82007E-01  2.31684E-01  2.90500E-01  2.61017E-01  2.32743E-01  2.50254E-01  2.70833E-01  2.73254E-01  2.34974E-01
   2.68805E-01  2.18930E-01  2.29041E-01  2.61444E-01  2.32939E-01  2.51591E-01  2.24827E-01  2.38087E-01  2.56265E-01  1.99814E-01
   1.58423E-01  2.04301E-01  1.70837E-01  1.61879E-01  1.98331E-01  1.31017E-01  1.28141E-01  2.07440E-01  1.93987E-01  1.86071E-01
   2.47992E-01  1.97085E-01  1.49563E-01  1.91288E-01  2.05804E-01  1.93933E-01  1.65150E-01  2.32792E-01  2.14941E-01  2.61235E-01
   2.42579E-01  2.28530E-01  1.70739E-01  1.82052E-01  2.17712E-01  1.68979E-01  2.07906E-01  2.63710E-01  2.18612E-01  2.25283E-01
   2.33327E-01  3.16492E-01  2.65644E-01  2.37338E-01  2.30422E-01  2.73799E-01  2.46128E-01  2.55180E-01  2.78152E-01  2.66605E-01
   2.86178E-01  2.65206E-01  2.91571E-01  2.67019E-01  2.49957E-01  2.91336E-01  2.79479E-01  2.76621E-01  3.01577E-01  3.07565E-01
   3.06713E-01  2.90745E-01  2.93506E-01  3.14904E-01  3.18900E-01  3.17502E-01  3.49421E-01  3.39303E-01  3.47670E-01  3.64830E-01
   4.17372E-01  3.98457E-01  4.24336E-01  4.09450E-01  4.41009E-01  4.10940E-01  4.23989E-01  4.82321E-01  4.92579E-01  4.65828E-01
   4.64425E-01  4.36459E-01  4.18957E-01  4.18309E-01  4.36163E-01  4.34732E-01  4.19763E-01  4.50583E-01  4.34044E-01  4.55599E-01
   4.40320E-01  4.15167E-01  4.10572E-01  3.78868E-01  3.46258E-01  3.63882E-01  3.25866E-01  3.26962E-01  3.35559E-01  3.76132E-01
   3.51505E-01  3.77358E-01  3.59564E-01  4.39955E-01  3.98778E-01  3.63214E-01  4.36688E-01  3.82547E-01  3.72445E-01  3.59237E-01
   3.65822E-01  4.20025E-01  3.66658E-01  4.25152E-01  3.76372E-01  4.06675E-01  4.34076E-01  3.59037E-01  3.71103E-01  3.65903E-01
   3.53680E-01  3.72301E-01  3.01285E-01  3.30375E-01  3.09397E-01  3.46848E-01  2.89655E-01  2.65961E-01  2.77384E-01  2.02439E-01
   1.98646E-01  1.67928E-01  1.20569E-01  1.57947E-01  1.60485E-01  1.49122E-01  1.17344E-01  4.46512E-02  1.11861E-01  6.65426E-02
   8.83372E-02  8.68741E-02  8.23340E-02  8.49626E-02  8.38611E-02  1.42177E-01  9.96762E-02  6.95177E-02  1.20335E-01  1.04038E-01
   1.54323E-01  9.93140E-02  1.58023E-01  1.48289E-01  1.63887E-01  2.11840E-01  1.86052E-01  2.20581E-01  2.00689E-01  2.30908E-01
   2.33324E-01  1.93801E-01  2.31041E-01  2.29218E-01  2.77102E-01  2.64379E-01  3.16025E-01  3.52159E-01  3.30896E-01  3.76342E-01
   3.28485E-01  3.68038E-01  3.37129E-01  4.02162E-01  4.03019E-01  3.50496E-01  4.42259E-01  4.31067E-01  4.43135E-01  4.05223E-01
   4.72759E-01  5.18854E-01  4.40504E-01  4.39115E-01  4.68989E-01  4.69876E-01  4.67170E-01  4.42966E-01  4.05190E-01  4.12445E-01
   4.31250E-01  4.34173E-01  4.05931E-01  3.72185E-01  3.98114E-01  3.42818E-01  3.24035E-01  3.26737E-01  2.62000E-01  2.29518E-01
   2.75436E-01  2.45162E-01  1.82473E-01  1.64492E-01  1.85367E-01  1.63242E-01  1.48221E-01  1.04937E-01  8.80845E-02  9.91656E-02
   1.07164E-01  8.39334E-02  4.59043E-02  2.53054E-02  5.31871E-02  2.08156E-02 -4.19456E-03  3.14521E-02  1.29994E-02  6.81662E-03
   6.20996E-03  2.33458E-02 -1.27260E-02 -6.46666E-02 -3.16568E-02 -2.91227E-02 -2.81443E-02 -3.84778E-02 -9.90218E-02 -1.82708E-02
  -4.41443E-02 -4.36841E-02 -3.16053E-02 -5.99664E-02 -7.76582E-02  8.83637E-03 -8.42209E-02 -4.65665E-02 -1.83206E-02 -4.74195E-02
  -3.23717E-02 -7.90532E-02 -4.63618E-02 -6.69709E-02 -3.37738E-02 -9.86203E-02 -9.46253E-02 -4.53463E-02 -4.69715E-02 -4.33969E-02
  -4.57282E-02  2.89895E-03  3.91643E-03 -7.22326E-02  5.97216E-03 -1.52044E-01 -1.26003E-01 -4.04056E-02 -7.96995E-02 -2.81953E-02
  -3.50531E-02 -6.16150E-02 -7.80623E-02 -2.37679E-02
 NY points of the fit to the data follow
   2.40952E-01  2.23407E-01  2.09560E-01  1.98892E-01  1.90881E-01  1.88860E-01  1.96054E-01  2.09261E-01  2.23403E-01  2.43550E-01
   2.85472E-01  3.47469E-01  4.03158E-01  4.44776E-01  4.92700E-01  5.64555E-01  6.53837E-01  7.38668E-01  8.11825E-01  8.92270E-01
   9.98683E-01  1.12350E+00  1.23737E+00  1.31174E+00  1.33402E+00  1.31025E+00  1.25633E+00  1.18616E+00  1.10925E+00  1.03315E+00
   9.59458E-01  8.82251E-01  8.03355E-01  7.36298E-01  6.87174E-01  6.52057E-01  6.23813E-01  5.99573E-01  5.84859E-01  5.85144E-01
   5.98654E-01  6.22228E-01  6.54357E-01  6.91517E-01  7.26543E-01  7.54169E-01  7.78279E-01  8.06818E-01  8.42113E-01  8.78785E-01
   9.10825E-01  9.36940E-01  9.61791E-01  9.92543E-01  1.03150E+00  1.07404E+00  1.11193E+00  1.13824E+00  1.15064E+00  1.14971E+00
   1.13501E+00  1.10641E+00  1.06732E+00  1.02450E+00  9.85029E-01  9.54789E-01  9.36628E-01  9.27908E-01  9.23538E-01  9.19359E-01
   9.13150E-01  9.03028E-01  8.88344E-01  8.71556E-01  8.58895E-01  8.59230E-01  8.78436E-01  9.15054E-01  9.63090E-01  1.01618E+00
   1.06818E+00  1.11154E+00  1.13529E+00  1.12745E+00  1.08302E+00  1.01016E+00  9.26149E-01  8.45154E-01  7.76988E-01  7.33665E-01
   7.22425E-01  7.40673E-01  7.81066E-01  8.38502E-01  9.11720E-01  1.00269E+00  1.10957E+00  1.21832E+00  1.30657E+00  1.35544E+00
   1.35910E+00  1.32561E+00  1.26891E+00  1.19929E+00  1.12111E+00  1.03683E+00  9.48716E-01  8.60856E-01  7.81780E-01  7.19411E-01
   6.75627E-01  6.49253E-01  6.36948E-01  6.32174E-01  6.28066E-01  6.21964E-01  6.13862E-01  6.03616E-01  5.90627E-01  5.74347E-01
   5.55338E-01  5.34611E-01  5.12589E-01  4.89817E-01  4.68516E-01  4.51924E-01  4.41300E-01  4.34998E-01  4.29800E-01  4.23353E-01
   4.15994E-01  4.10273E-01  4.09148E-01  4.14012E-01  4.22802E-01  4.31920E-01  4.41515E-01  4.53869E-01  4.69211E-01  4.84885E-01
   4.98663E-01  5.10953E-01  5.23044E-01  5.33508E-01  5.37094E-01  5.27742E-01  5.03299E-01  4.67914E-01  4.31900E-01  4.06777E-01
   3.96388E-01  3.98054E-01  4.11633E-01  4.37392E-01  4.71730E-01  5.09621E-01  5.49224E-01  5.92077E-01  6.41007E-01  6.97846E-01
   7.62211E-01  8.26585E-01  8.74241E-01  8.99909E-01  9.24878E-01  9.73890E-01  1.05221E+00  1.15071E+00  1.26343E+00  1.38961E+00
   1.52218E+00  1.64023E+00  1.71200E+00  1.70912E+00  1.62425E+00  1.47583E+00  1.29920E+00  1.13033E+00  9.92251E-01  8.90460E-01
   8.15441E-01  7.50134E-01  6.83911E-01  6.21382E-01  5.71237E-01  5.34755E-01  5.09346E-01  4.92389E-01  4.81883E-01  4.76187E-01
   4.74411E-01  4.76474E-01  4.83091E-01  4.95419E-01  5.14517E-01  5.41802E-01  5.80268E-01  6.35629E-01  7.14994E-01  8.15745E-01
   9.12498E-01  9.92453E-01  1.08187E+00  1.20695E+00  1.37125E+00  1.56639E+00  1.78676E+00  2.03068E+00  2.28601E+00  2.51710E+00
   2.67125E+00  2.70291E+00  2.59663E+00  2.37405E+00  2.08465E+00  1.78518E+00  1.51913E+00  1.30791E+00  1.14964E+00  1.02313E+00
   9.08269E-01  8.05654E-01  7.20245E-01  6.49559E-01  5.94170E-01  5.54313E-01  5.28240E-01  5.14202E-01  5.08964E-01  5.07784E-01
   5.06578E-01  5.03478E-01  4.97497E-01  4.87266E-01  4.72590E-01  4.54410E-01  4.34120E-01  4.13768E-01  3.95884E-01  3.82740E-01
   3.75386E-01  3.72237E-01  3.69187E-01  3.62833E-01  3.52467E-01  3.39435E-01  3.26430E-01  3.16041E-01  3.09673E-01  3.07531E-01
   3.08430E-01  3.10796E-01  3.13992E-01  3.17537E-01  3.19182E-01  3.19757E-01  3.25455E-01  3.39896E-01  3.60805E-01  3.84376E-01
   4.08857E-01  4.30346E-01  4.42095E-01  4.42577E-01  4.33807E-01  4.18376E-01  4.00552E-01  3.86552E-01  3.83135E-01  3.93696E-01
   4.14711E-01  4.35798E-01  4.43616E-01  4.28288E-01  3.89932E-01  3.39773E-01  2.91809E-01  2.55450E-01  2.34206E-01  2.25728E-01
   2.23492E-01  2.21963E-01  2.23303E-01  2.33221E-01  2.53876E-01  2.86106E-01  3.30483E-01  3.82483E-01  4.32370E-01  4.73818E-01
   5.05616E-01  5.27278E-01  5.38057E-01  5.39967E-01  5.40830E-01  5.50583E-01  5.72187E-01  5.99078E-01  6.22066E-01  6.34336E-01
   6.33138E-01  6.20669E-01  6.01954E-01  5.80835E-01  5.58868E-01  5.36118E-01  5.12040E-01  4.85901E-01  4.59521E-01  4.38842E-01
   4.29868E-01  4.34832E-01  4.48945E-01  4.63450E-01  4.75488E-01  4.87978E-01  5.04530E-01  5.26788E-01  5.54350E-01  5.86549E-01
   6.24051E-01  6.67174E-01  7.11469E-01  7.48132E-01  7.73473E-01  7.91021E-01  8.04708E-01  8.14788E-01  8.23012E-01  8.36033E-01
   8.56490E-01  8.78144E-01  8.93711E-01  9.00577E-01  8.99536E-01  8.91559E-01  8.79132E-01  8.67141E-01  8.58128E-01  8.49236E-01
   8.40596E-01  8.36185E-01  8.34742E-01  8.37039E-01  8.54965E-01  9.00654E-01  9.76306E-01  1.07489E+00  1.18508E+00  1.29253E+00
   1.38034E+00  1.43326E+00  1.44029E+00  1.39700E+00  1.31132E+00  1.20217E+00  1.09320E+00  1.00413E+00  9.44243E-01  9.15652E-01
   9.17406E-01  9.43645E-01  9.86528E-01  1.04033E+00  1.09663E+00  1.14186E+00  1.16430E+00  1.16023E+00  1.13455E+00  1.09715E+00
   1.05835E+00  1.02517E+00  9.99682E-01  9.80601E-01  9.65268E-01  9.51324E-01  9.39229E-01  9.30867E-01  9.27063E-01  9.27325E-01
   9.30098E-01  9.33507E-01  9.36938E-01  9.41487E-01  9.48565E-01  9.58807E-01  9.72155E-01  9.87848E-01  1.00389E+00  1.01739E+00
   1.02637E+00  1.03187E+00  1.03715E+00  1.04445E+00  1.05499E+00  1.07093E+00  1.09496E+00  1.12868E+00  1.17148E+00  1.21895E+00
   1.26364E+00  1.30120E+00  1.33314E+00  1.36402E+00  1.39555E+00  1.42347E+00  1.44822E+00  1.48231E+00  1.53958E+00  1.62550E+00
   1.73816E+00  1.87842E+00  2.05246E+00  2.23795E+00  2.37449E+00  2.45889E+00  2.55111E+00  2.69021E+00  2.86485E+00  3.05333E+00
   3.26088E+00  3.50201E+00  3.75142E+00  3.92909E+00  3.94122E+00  3.74174E+00  3.36057E+00  2.88299E+00  2.40823E+00  2.01044E+00
   1.71773E+00  1.51738E+00  1.36716E+00  1.21735E+00  1.05516E+00  9.10343E-01  7.98419E-01  7.13835E-01  6.49160E-01  5.99289E-01
   5.60331E-01  5.28714E-01  5.02028E-01  4.79306E-01  4.59740E-01  4.42137E-01  4.25463E-01  4.09592E-01  3.95038E-01  3.82046E-01
   3.70224E-01  3.58694E-01  3.46598E-01  3.33460E-01  3.19538E-01  3.05961E-01  2.93995E-01  2.84114E-01  2.75944E-01  2.68769E-01
   2.62262E-01  2.56840E-01  2.52973E-01  2.50502E-01  2.48689E-01  2.46536E-01  2.43362E-01  2.39098E-01  2.34211E-01  2.29501E-01
   2.25624E-01  2.22595E-01  2.19879E-01  2.16899E-01  2.13498E-01  2.09909E-01  2.06392E-01  2.03122E-01  2.00239E-01  1.97820E-01
   1.95845E-01  1.94232E-01  1.92998E-01  1.92329E-01  1.92420E-01  1.93280E-01  1.94693E-01  1.96350E-01  1.98013E-01  1.99562E-01
   2.00992E-01  2.02380E-01  2.03826E-01  2.05404E-01  2.07124E-01  2.08911E-01  2.10691E-01  2.12459E-01  2.14227E-01  2.15986E-01
   2.17711E-01  2.19384E-01  2.20992E-01  2.22526E-01  2.23976E-01  2.25338E-01  2.26619E-01  2.27832E-01  2.29003E-01  2.30166E-01
   2.31357E-01  2.32616E-01  2.33980E-01  2.35489E-01  2.37191E-01  2.39134E-01  2.41365E-01  2.43932E-01  2.46876E-01  2.50235E-01
   2.54039E-01  2.58312E-01  2.63070E-01  2.68320E-01  2.74059E-01  2.80275E-01  2.86948E-01  2.94043E-01  3.01520E-01  3.09325E-01
   3.17399E-01  3.25674E-01  3.34077E-01  3.42530E-01  3.50951E-01  3.59259E-01  3.67371E-01  3.75206E-01  3.82687E-01  3.89740E-01
   3.96302E-01  4.02313E-01  4.07723E-01  4.12493E-01  4.16594E-01  4.20008E-01  4.22729E-01  4.24760E-01  4.26118E-01  4.26827E-01
