 LCModel (Version 6.3-0D) Copyright: S.W. Provencher.          Ref.: Magn. Reson. Med. 30:672-679 (1993).                
 S04_PRESS_35
 Data of: Dept of Radiology, The Johns Hopkins University School of Medicine
 17-March-2020  16:32
 32 lines in following concentration table = NCONC+1
    Conc.  %SD /Cr+PCr  Metabolite                                         
    1.360  40%   0.814 Asc                                                 
    6.913  15%   4.135 Asp                                                 
    7.340   6%   4.390 Cr                                                  
    1.977  28%   1.183 GABA                                                
    0.000 999%   0.000 GPC                                                 
    2.670   9%   1.597 GSH                                                 
    4.888  17%   2.924 Gln                                                 
   23.928   5%  14.313 Glu                                                 
   13.721   4%   8.207 Ins                                                 
    0.000 999%   0.000 Lac                                                 
   25.220   2%  15.086 NAA                                                 
    2.099  19%   1.256 NAAG                                                
    2.968   3%   1.776 PCh                                                 
    6.035   7%   3.610 PCr                                                 
    3.012  35%   1.802 PE                                                  
    0.695  14%   0.416 Scyllo                                              
    2.703  27%   1.617 Tau                                                 
    0.000 999%   0.000 -CrCH2                                              
    2.968   3%   1.776 PCh+GPC                                             
   13.374   2%   8.000 Cr+PCr                                              
   27.319   1%  16.342 NAA+NAAG                                            
   28.815   5%  17.236 Glu+Gln                                             
   30.685  25%  18.355 Lip13a                                              
    0.000 999%   0.000 Lip13b                                              
    7.906  28%   4.729 Lip09                                               
    5.000  55%   2.991 MM09                                                
    6.391  19%   3.823 Lip20                                               
   16.479  23%   9.857 MM20                                                
    1.352 116%   0.808 MM12                                                
    4.184  67%   2.503 MM14                                                
    5.055  44%   3.024 MM17                                                
   6 lines in following misc. output table
  FWHM = 0.029 ppm    S/N =  51                                            
  Data shift = 0.000 ppm                                                   
  Ph:  14 deg       2.1 deg/ppm                                            
  alphaB,S = 2.9E-02,   4.0E-01                                            
   26 spline knots.   Ns = 7(1)                                            
   2 inflections.     1 extrema                                            
  734 points on ppm-axis = NY
      4.000000     3.995223     3.990446     3.985669     3.980892     3.976115     3.971338     3.966561     3.961784     3.957007
      3.952230     3.947453     3.942677     3.937900     3.933123     3.928346     3.923569     3.918792     3.914015     3.909238
      3.904461     3.899684     3.894907     3.890130     3.885353     3.880576     3.875799     3.871022     3.866245     3.861468
      3.856691     3.851914     3.847137     3.842360     3.837584     3.832807     3.828030     3.823253     3.818476     3.813699
      3.808922     3.804145     3.799368     3.794591     3.789814     3.785037     3.780260     3.775483     3.770706     3.765929
      3.761152     3.756375     3.751598     3.746821     3.742044     3.737267     3.732491     3.727714     3.722937     3.718160
      3.713383     3.708606     3.703829     3.699052     3.694275     3.689498     3.684721     3.679944     3.675167     3.670390
      3.665613     3.660836     3.656059     3.651282     3.646505     3.641728     3.636951     3.632174     3.627398     3.622621
      3.617844     3.613067     3.608290     3.603513     3.598736     3.593959     3.589182     3.584405     3.579628     3.574851
      3.570074     3.565297     3.560520     3.555743     3.550966     3.546189     3.541412     3.536635     3.531858     3.527081
      3.522305     3.517528     3.512751     3.507974     3.503197     3.498420     3.493643     3.488866     3.484089     3.479312
      3.474535     3.469758     3.464981     3.460204     3.455427     3.450650     3.445873     3.441096     3.436319     3.431542
      3.426765     3.421988     3.417212     3.412435     3.407658     3.402881     3.398104     3.393327     3.388550     3.383773
      3.378996     3.374219     3.369442     3.364665     3.359888     3.355111     3.350334     3.345557     3.340780     3.336003
      3.331226     3.326449     3.321672     3.316895     3.312119     3.307342     3.302565     3.297788     3.293011     3.288234
      3.283457     3.278680     3.273903     3.269126     3.264349     3.259572     3.254795     3.250018     3.245241     3.240464
      3.235687     3.230910     3.226133     3.221356     3.216579     3.211802     3.207026     3.202249     3.197472     3.192695
      3.187918     3.183141     3.178364     3.173587     3.168810     3.164033     3.159256     3.154479     3.149702     3.144925
      3.140148     3.135371     3.130594     3.125817     3.121040     3.116263     3.111486     3.106709     3.101933     3.097156
      3.092379     3.087602     3.082825     3.078048     3.073271     3.068494     3.063717     3.058940     3.054163     3.049386
      3.044609     3.039832     3.035055     3.030278     3.025501     3.020724     3.015947     3.011170     3.006393     3.001616
      2.996840     2.992063     2.987286     2.982509     2.977732     2.972955     2.968178     2.963401     2.958624     2.953847
      2.949070     2.944293     2.939516     2.934739     2.929962     2.925185     2.920408     2.915631     2.910854     2.906077
      2.901300     2.896523     2.891747     2.886970     2.882193     2.877416     2.872639     2.867862     2.863085     2.858308
      2.853531     2.848754     2.843977     2.839200     2.834423     2.829646     2.824869     2.820092     2.815315     2.810538
      2.805761     2.800984     2.796207     2.791430     2.786654     2.781877     2.777100     2.772323     2.767546     2.762769
      2.757992     2.753215     2.748438     2.743661     2.738884     2.734107     2.729330     2.724553     2.719776     2.714999
      2.710222     2.705445     2.700668     2.695891     2.691114     2.686337     2.681561     2.676784     2.672007     2.667230
      2.662453     2.657676     2.652899     2.648122     2.643345     2.638568     2.633791     2.629014     2.624237     2.619460
      2.614683     2.609906     2.605129     2.600352     2.595575     2.590798     2.586021     2.581244     2.576468     2.571691
      2.566914     2.562137     2.557360     2.552583     2.547806     2.543029     2.538252     2.533475     2.528698     2.523921
      2.519144     2.514367     2.509590     2.504813     2.500036     2.495259     2.490482     2.485705     2.480928     2.476151
      2.471375     2.466598     2.461821     2.457044     2.452267     2.447490     2.442713     2.437936     2.433159     2.428382
      2.423605     2.418828     2.414051     2.409274     2.404497     2.399720     2.394943     2.390166     2.385389     2.380612
      2.375835     2.371058     2.366282     2.361505     2.356728     2.351951     2.347174     2.342397     2.337620     2.332843
      2.328066     2.323289     2.318512     2.313735     2.308958     2.304181     2.299404     2.294627     2.289850     2.285073
      2.280296     2.275519     2.270742     2.265965     2.261189     2.256412     2.251635     2.246858     2.242081     2.237304
      2.232527     2.227750     2.222973     2.218196     2.213419     2.208642     2.203865     2.199088     2.194311     2.189534
      2.184757     2.179980     2.175203     2.170426     2.165649     2.160872     2.156096     2.151319     2.146542     2.141765
      2.136988     2.132211     2.127434     2.122657     2.117880     2.113103     2.108326     2.103549     2.098772     2.093995
      2.089218     2.084441     2.079664     2.074887     2.070110     2.065333     2.060556     2.055779     2.051003     2.046226
      2.041449     2.036672     2.031895     2.027118     2.022341     2.017564     2.012787     2.008010     2.003233     1.998456
      1.993679     1.988902     1.984125     1.979348     1.974571     1.969794     1.965017     1.960240     1.955463     1.950686
      1.945910     1.941133     1.936356     1.931579     1.926802     1.922025     1.917248     1.912471     1.907694     1.902917
      1.898140     1.893363     1.888586     1.883809     1.879032     1.874255     1.869478     1.864701     1.859924     1.855147
      1.850370     1.845593     1.840816     1.836040     1.831263     1.826486     1.821709     1.816932     1.812155     1.807378
      1.802601     1.797824     1.793047     1.788270     1.783493     1.778716     1.773939     1.769162     1.764385     1.759608
      1.754831     1.750054     1.745277     1.740500     1.735723     1.730947     1.726170     1.721393     1.716616     1.711839
      1.707062     1.702285     1.697508     1.692731     1.687954     1.683177     1.678400     1.673623     1.668846     1.664069
      1.659292     1.654515     1.649738     1.644961     1.640184     1.635407     1.630630     1.625854     1.621077     1.616300
      1.611523     1.606746     1.601969     1.597192     1.592415     1.587638     1.582861     1.578084     1.573307     1.568530
      1.563753     1.558976     1.554199     1.549422     1.544645     1.539868     1.535091     1.530314     1.525537     1.520761
      1.515984     1.511207     1.506430     1.501653     1.496876     1.492099     1.487322     1.482545     1.477768     1.472991
      1.468214     1.463437     1.458660     1.453883     1.449106     1.444329     1.439552     1.434775     1.429998     1.425221
      1.420444     1.415668     1.410891     1.406114     1.401337     1.396560     1.391783     1.387006     1.382229     1.377452
      1.372675     1.367898     1.363121     1.358344     1.353567     1.348790     1.344013     1.339236     1.334459     1.329682
      1.324905     1.320128     1.315351     1.310575     1.305798     1.301021     1.296244     1.291467     1.286690     1.281913
      1.277136     1.272359     1.267582     1.262805     1.258028     1.253251     1.248474     1.243697     1.238920     1.234143
      1.229366     1.224589     1.219812     1.215035     1.210258     1.205482     1.200705     1.195928     1.191151     1.186374
      1.181597     1.176820     1.172043     1.167266     1.162489     1.157712     1.152935     1.148158     1.143381     1.138604
      1.133827     1.129050     1.124273     1.119496     1.114719     1.109942     1.105165     1.100389     1.095612     1.090835
      1.086058     1.081281     1.076504     1.071727     1.066950     1.062173     1.057396     1.052619     1.047842     1.043065
      1.038288     1.033511     1.028734     1.023957     1.019180     1.014403     1.009626     1.004849     1.000072     0.995296
      0.990519     0.985742     0.980965     0.976188     0.971411     0.966634     0.961857     0.957080     0.952303     0.947526
      0.942749     0.937972     0.933195     0.928418     0.923641     0.918864     0.914087     0.909310     0.904533     0.899756
      0.894979     0.890203     0.885426     0.880649     0.875872     0.871095     0.866318     0.861541     0.856764     0.851987
      0.847210     0.842433     0.837656     0.832879     0.828102     0.823325     0.818548     0.813771     0.808994     0.804217
      0.799440     0.794663     0.789886     0.785110     0.780333     0.775556     0.770779     0.766002     0.761225     0.756448
      0.751671     0.746894     0.742117     0.737340     0.732563     0.727786     0.723009     0.718232     0.713455     0.708678
      0.703901     0.699124     0.694347     0.689570     0.684793     0.680017     0.675240     0.670463     0.665686     0.660909
      0.656132     0.651355     0.646578     0.641801     0.637024     0.632247     0.627470     0.622693     0.617916     0.613139
      0.608362     0.603585     0.598808     0.594031     0.589254     0.584477     0.579700     0.574924     0.570147     0.565370
      0.560593     0.555816     0.551039     0.546262     0.541485     0.536708     0.531931     0.527154     0.522377     0.517600
      0.512823     0.508046     0.503269     0.498492
 NY phased data points follow
   1.16262E-01  1.20815E-01  1.24598E-01  1.84836E-01  1.77590E-01  1.47095E-01  2.42638E-01  2.46594E-01  2.14079E-01  2.47258E-01
   2.96017E-01  3.25541E-01  4.28604E-01  4.21721E-01  4.30207E-01  5.04544E-01  6.53474E-01  7.13684E-01  8.53002E-01  9.12579E-01
   1.05841E+00  1.07075E+00  1.25885E+00  1.32744E+00  1.33804E+00  1.32265E+00  1.26573E+00  1.17419E+00  1.09628E+00  9.24043E-01
   8.64199E-01  8.01865E-01  7.50675E-01  6.61245E-01  6.39301E-01  6.00058E-01  5.72833E-01  6.26042E-01  6.30225E-01  6.48959E-01
   5.69210E-01  6.49530E-01  6.66107E-01  6.29030E-01  7.04390E-01  7.14144E-01  8.35603E-01  8.97623E-01  8.50629E-01  9.13953E-01
   9.39094E-01  9.73366E-01  1.02732E+00  1.06088E+00  1.10753E+00  1.14132E+00  1.28007E+00  1.27561E+00  1.28126E+00  1.27287E+00
   1.21089E+00  1.12954E+00  1.02790E+00  9.54396E-01  9.45069E-01  9.76404E-01  1.02971E+00  1.01335E+00  1.12096E+00  1.06121E+00
   1.01499E+00  1.00625E+00  9.07419E-01  8.68036E-01  7.99994E-01  7.56439E-01  7.93489E-01  8.56042E-01  8.77432E-01  9.08371E-01
   1.05543E+00  1.04034E+00  1.23229E+00  1.16918E+00  1.11359E+00  1.04377E+00  9.37167E-01  8.48865E-01  7.02202E-01  6.34737E-01
   6.08282E-01  6.40516E-01  6.65311E-01  7.06402E-01  7.91731E-01  9.90056E-01  1.11089E+00  1.29030E+00  1.38726E+00  1.49899E+00
   1.52149E+00  1.45729E+00  1.34445E+00  1.26342E+00  1.13886E+00  9.97943E-01  8.94744E-01  7.96806E-01  6.97123E-01  6.36652E-01
   6.09341E-01  6.00478E-01  5.31860E-01  5.68204E-01  5.93627E-01  5.87506E-01  6.19065E-01  5.66857E-01  6.15489E-01  5.33035E-01
   5.80778E-01  5.60926E-01  5.92384E-01  5.65341E-01  5.29006E-01  4.83970E-01  5.30068E-01  5.03275E-01  4.78836E-01  5.13941E-01
   4.86206E-01  4.22802E-01  3.91623E-01  3.80530E-01  3.78025E-01  4.01605E-01  4.31000E-01  3.98911E-01  4.42038E-01  4.79960E-01
   4.63240E-01  5.52726E-01  5.57410E-01  6.07565E-01  5.72002E-01  5.38951E-01  4.95757E-01  4.40537E-01  3.94226E-01  3.74350E-01
   3.28261E-01  3.17104E-01  2.87809E-01  3.50180E-01  4.20415E-01  4.58981E-01  5.43791E-01  6.09541E-01  6.36824E-01  7.00638E-01
   7.02015E-01  7.14857E-01  7.29798E-01  7.37213E-01  7.85803E-01  7.93290E-01  8.79104E-01  1.04696E+00  1.15967E+00  1.38735E+00
   1.60137E+00  1.82866E+00  1.90223E+00  1.90609E+00  1.74301E+00  1.52602E+00  1.35853E+00  1.18035E+00  1.02621E+00  8.87260E-01
   7.86456E-01  7.14442E-01  6.15069E-01  6.12262E-01  4.98687E-01  4.19680E-01  4.61803E-01  4.62456E-01  4.17816E-01  4.20570E-01
   4.22261E-01  4.92324E-01  4.11665E-01  3.76521E-01  3.83568E-01  4.29589E-01  4.68666E-01  4.69741E-01  5.42574E-01  5.48500E-01
   5.40354E-01  5.87105E-01  6.69325E-01  7.72576E-01  9.54258E-01  1.11748E+00  1.42631E+00  1.72311E+00  2.12525E+00  2.43076E+00
   2.65426E+00  2.63723E+00  2.46299E+00  2.19276E+00  1.89480E+00  1.54733E+00  1.28978E+00  1.16997E+00  9.79567E-01  8.95147E-01
   8.97655E-01  7.76712E-01  7.41024E-01  6.33896E-01  5.75862E-01  5.59859E-01  5.35908E-01  5.58580E-01  5.21251E-01  5.55143E-01
   5.45416E-01  5.68384E-01  5.45921E-01  5.49621E-01  5.05476E-01  4.58717E-01  4.35953E-01  3.96337E-01  3.97531E-01  3.85377E-01
   4.30920E-01  4.04318E-01  4.07178E-01  4.34229E-01  3.69636E-01  4.22185E-01  3.61864E-01  2.67804E-01  3.21001E-01  3.13442E-01
   3.06198E-01  2.75878E-01  3.02776E-01  3.30551E-01  2.71265E-01  3.08335E-01  3.05241E-01  3.30956E-01  3.85554E-01  4.23208E-01
   3.93912E-01  4.33322E-01  4.71956E-01  5.11572E-01  5.31456E-01  4.76290E-01  4.65547E-01  4.20047E-01  3.82738E-01  4.46195E-01
   4.59820E-01  4.79477E-01  5.31379E-01  5.41019E-01  4.08959E-01  3.88689E-01  2.66473E-01  2.46267E-01  2.48461E-01  1.63467E-01
   1.71265E-01  1.68077E-01  1.89250E-01  2.37049E-01  2.16956E-01  2.45798E-01  2.40074E-01  3.21539E-01  3.41449E-01  4.25485E-01
   4.58465E-01  5.08608E-01  5.26842E-01  5.14100E-01  4.94987E-01  5.22196E-01  5.72597E-01  6.87858E-01  7.26971E-01  7.24897E-01
   7.43039E-01  6.79063E-01  7.39359E-01  6.28624E-01  6.69329E-01  6.28363E-01  5.62355E-01  4.83159E-01  4.46860E-01  4.43037E-01
   4.02376E-01  4.18287E-01  4.36388E-01  4.52076E-01  4.79862E-01  4.59307E-01  4.96362E-01  4.99104E-01  5.01337E-01  5.89672E-01
   5.85331E-01  6.35533E-01  6.73506E-01  7.06055E-01  7.33582E-01  6.94221E-01  6.87575E-01  7.10431E-01  7.45273E-01  8.26920E-01
   8.92893E-01  8.97364E-01  9.42100E-01  9.06334E-01  8.63256E-01  8.19805E-01  8.12390E-01  7.86212E-01  7.43548E-01  7.30170E-01
   6.43873E-01  6.28618E-01  6.75328E-01  6.95763E-01  7.71077E-01  8.41865E-01  9.53428E-01  1.13688E+00  1.27121E+00  1.41195E+00
   1.50687E+00  1.57276E+00  1.54969E+00  1.42926E+00  1.26831E+00  1.18387E+00  9.87997E-01  9.09865E-01  8.69106E-01  8.04266E-01
   8.22040E-01  8.60579E-01  9.55420E-01  1.02970E+00  1.16578E+00  1.22635E+00  1.26370E+00  1.16835E+00  1.11360E+00  1.08702E+00
   1.10348E+00  1.09506E+00  1.02196E+00  9.74689E-01  1.00203E+00  9.46666E-01  9.70345E-01  9.09055E-01  9.84850E-01  8.81166E-01
   8.90890E-01  8.89883E-01  9.21337E-01  8.92076E-01  9.19019E-01  9.56258E-01  1.00046E+00  9.79008E-01  1.00439E+00  9.67145E-01
   9.62812E-01  1.01820E+00  9.75570E-01  9.24046E-01  9.19519E-01  9.36705E-01  9.97886E-01  1.06128E+00  1.10306E+00  1.15980E+00
   1.30866E+00  1.24218E+00  1.33873E+00  1.37358E+00  1.37572E+00  1.36077E+00  1.38176E+00  1.41215E+00  1.43189E+00  1.51684E+00
   1.58237E+00  1.62934E+00  1.69030E+00  1.80054E+00  1.94700E+00  2.07849E+00  2.24066E+00  2.57987E+00  2.82116E+00  3.16706E+00
   3.68726E+00  4.29295E+00  4.99793E+00  5.36212E+00  5.37955E+00  4.89234E+00  4.16865E+00  3.40708E+00  2.66296E+00  2.12456E+00
   1.81202E+00  1.53320E+00  1.32251E+00  1.21626E+00  1.03023E+00  9.32282E-01  8.02396E-01  7.07619E-01  6.59565E-01  6.11355E-01
   5.18940E-01  4.97944E-01  4.45565E-01  4.54224E-01  3.83866E-01  4.15422E-01  4.02832E-01  4.17938E-01  4.21080E-01  3.39084E-01
   3.94254E-01  3.41009E-01  2.91685E-01  3.63561E-01  3.35585E-01  3.53250E-01  3.57575E-01  3.56057E-01  3.45260E-01  3.23992E-01
   3.89997E-01  2.93255E-01  2.89288E-01  3.59317E-01  3.15191E-01  3.19353E-01  4.02053E-01  3.56051E-01  3.04732E-01  3.19916E-01
   3.12083E-01  3.49759E-01  3.19194E-01  3.62410E-01  3.28105E-01  3.26307E-01  3.50270E-01  2.61111E-01  3.29774E-01  3.32628E-01
   3.19070E-01  3.20279E-01  2.77126E-01  2.98485E-01  2.97154E-01  3.05828E-01  3.18850E-01  2.83479E-01  3.26284E-01  3.12113E-01
   3.00363E-01  3.05562E-01  3.37968E-01  3.38065E-01  3.11492E-01  3.35685E-01  2.68465E-01  3.33687E-01  2.81117E-01  2.79512E-01
   3.13600E-01  3.19374E-01  3.09808E-01  3.16042E-01  3.29531E-01  2.96440E-01  3.59392E-01  3.11790E-01  3.05932E-01  2.56247E-01
   2.98829E-01  2.85287E-01  2.93077E-01  2.54876E-01  2.96966E-01  2.63969E-01  3.46825E-01  3.22679E-01  2.71609E-01  2.72617E-01
   3.36447E-01  2.57130E-01  2.50985E-01  2.41875E-01  2.85894E-01  2.83337E-01  3.03716E-01  2.52858E-01  3.46570E-01  2.99215E-01
   3.34922E-01  2.63018E-01  3.00064E-01  3.05961E-01  2.85891E-01  2.96678E-01  3.09944E-01  2.98141E-01  3.26079E-01  2.77766E-01
   3.38750E-01  3.19418E-01  3.26294E-01  3.84432E-01  4.05034E-01  3.33075E-01  3.60472E-01  3.55834E-01  3.98970E-01  3.55702E-01
   3.22189E-01  3.69503E-01  3.20345E-01  3.31744E-01  3.39487E-01  3.94522E-01  3.78112E-01  4.38446E-01  3.60758E-01  4.37989E-01
   4.38969E-01  4.40301E-01  4.29099E-01  4.06592E-01  3.32749E-01  4.15742E-01  3.22364E-01  3.04317E-01  2.85840E-01  2.46328E-01
   3.21352E-01  3.31240E-01  3.31809E-01  3.31554E-01  3.63069E-01  2.46673E-01  2.92076E-01  3.07489E-01  2.47580E-01  2.50858E-01
   2.66029E-01  2.89970E-01  2.40683E-01  2.68925E-01  2.60846E-01  2.71603E-01  2.67001E-01  2.95537E-01  2.71126E-01  2.54329E-01
   2.93831E-01  3.14604E-01  3.29705E-01  3.12580E-01  2.89262E-01  3.32269E-01  3.25728E-01  2.86233E-01  2.72010E-01  3.17930E-01
   2.87642E-01  2.44605E-01  2.40999E-01  2.81967E-01  2.09802E-01  2.57735E-01  1.63893E-01  1.97147E-01  1.62241E-01  2.15836E-01
   1.09521E-01  1.47565E-01  1.28720E-01  1.17355E-01  1.17186E-01  1.34092E-01  1.37225E-01  8.63586E-02  9.98685E-02  6.66538E-02
   8.99706E-02  1.13022E-01  8.39074E-02  1.19672E-01  1.03086E-01  6.37550E-02  9.67287E-02  8.54840E-02  1.74088E-01  1.40891E-01
   1.37479E-01  1.53896E-01  1.24245E-01  2.55502E-01  2.43997E-01  1.81704E-01  1.93611E-01  2.73265E-01  2.82094E-01  2.82503E-01
   2.37456E-01  2.86994E-01  3.26683E-01  3.49642E-01  3.43609E-01  4.45355E-01  3.79078E-01  4.44031E-01  4.19763E-01  4.38545E-01
   4.84732E-01  4.63644E-01  4.70728E-01  4.45050E-01  4.78778E-01  5.53344E-01  5.25168E-01  5.18670E-01  4.72871E-01  5.04008E-01
   5.03931E-01  4.84438E-01  4.83112E-01  4.46508E-01  4.31331E-01  3.91031E-01  3.22765E-01  3.66989E-01  3.02307E-01  2.59722E-01
   2.54202E-01  2.32379E-01  2.42219E-01  1.59276E-01  1.60869E-01  1.75402E-01  1.30721E-01  1.21991E-01  1.07993E-01  1.42218E-01
   1.34238E-01  1.28181E-01  3.00019E-02  1.73909E-02  4.91746E-02  4.86964E-02  5.69735E-02  7.76203E-03 -7.75678E-03 -5.03749E-02
   2.98981E-02 -3.22632E-03  4.38391E-03 -5.53129E-02 -1.41857E-02 -7.37665E-02 -3.08503E-02 -2.03520E-02 -2.08557E-02 -5.08292E-02
   4.44564E-02 -8.07585E-02 -2.68992E-02 -4.00163E-02 -4.27201E-02 -2.83051E-02 -6.81787E-02 -3.19583E-03 -2.86041E-02 -4.67025E-02
  -7.81226E-02 -5.76262E-02 -9.61822E-02 -4.00831E-02 -8.87014E-02 -6.31474E-02 -6.42218E-02 -7.60839E-02 -2.92363E-02 -3.91816E-02
  -4.25356E-02 -1.35214E-01 -5.61663E-03 -3.08123E-02 -7.88987E-02 -7.02279E-02 -9.23816E-02 -1.00883E-01  5.25273E-03 -7.68371E-02
  -8.47229E-02 -8.13311E-02 -8.47595E-02 -2.98197E-02
 NY points of the fit to the data follow
   2.48561E-01  2.28537E-01  2.15223E-01  1.96695E-01  1.79013E-01  1.69456E-01  1.68924E-01  1.73015E-01  1.77448E-01  1.87833E-01
   2.09019E-01  2.43683E-01  2.90212E-01  3.49261E-01  4.22386E-01  5.05430E-01  5.97438E-01  7.18109E-01  8.58576E-01  1.02256E+00
   1.16030E+00  1.24836E+00  1.30128E+00  1.32919E+00  1.36747E+00  1.38582E+00  1.36630E+00  1.29147E+00  1.17070E+00  1.02907E+00
   8.79403E-01  7.57947E-01  6.75506E-01  6.22398E-01  5.90982E-01  5.54119E-01  5.23643E-01  5.08918E-01  5.14509E-01  5.37452E-01
   5.70700E-01  6.07558E-01  6.41469E-01  6.72802E-01  7.02122E-01  7.31676E-01  7.66672E-01  8.08037E-01  8.52769E-01  8.88695E-01
   9.23428E-01  9.64281E-01  1.02044E+00  1.08962E+00  1.15480E+00  1.21559E+00  1.25577E+00  1.28647E+00  1.29209E+00  1.27447E+00
   1.23756E+00  1.18081E+00  1.12057E+00  1.05696E+00  1.01481E+00  9.97974E-01  1.00202E+00  1.01105E+00  1.01305E+00  1.00064E+00
   9.73347E-01  9.35676E-01  8.97194E-01  8.60971E-01  8.33300E-01  8.18509E-01  8.15856E-01  8.31321E-01  8.67927E-01  9.31117E-01
   1.01721E+00  1.10596E+00  1.16444E+00  1.16490E+00  1.10175E+00  9.90210E-01  8.59291E-01  7.38462E-01  6.50879E-01  6.05676E-01
   5.98855E-01  6.18706E-01  6.54612E-01  7.14606E-01  8.09504E-01  9.43731E-01  1.10619E+00  1.25804E+00  1.37512E+00  1.43222E+00
   1.43615E+00  1.40162E+00  1.33923E+00  1.26291E+00  1.16877E+00  1.07061E+00  9.60810E-01  8.55210E-01  7.66284E-01  6.99073E-01
   6.58829E-01  6.42245E-01  6.44662E-01  6.49439E-01  6.53137E-01  6.53141E-01  6.47949E-01  6.40593E-01  6.28682E-01  6.13613E-01
   5.92560E-01  5.68082E-01  5.41243E-01  5.13074E-01  4.90089E-01  4.74274E-01  4.67454E-01  4.64501E-01  4.59229E-01  4.47805E-01
   4.31652E-01  4.15181E-01  4.02547E-01  3.95841E-01  3.98561E-01  4.11504E-01  4.30975E-01  4.53125E-01  4.72468E-01  4.88162E-01
   5.04811E-01  5.25595E-01  5.50565E-01  5.72418E-01  5.72531E-01  5.49033E-01  4.99613E-01  4.40431E-01  3.85672E-01  3.44308E-01
   3.26321E-01  3.26904E-01  3.49285E-01  3.80957E-01  4.21836E-01  4.65428E-01  5.11332E-01  5.60769E-01  6.11628E-01  6.61515E-01
   6.93113E-01  7.09409E-01  7.17146E-01  7.32428E-01  7.69388E-01  8.30061E-01  9.17075E-01  1.02075E+00  1.17406E+00  1.37077E+00
   1.59921E+00  1.81445E+00  1.92447E+00  1.91416E+00  1.77068E+00  1.56154E+00  1.33683E+00  1.13367E+00  9.79418E-01  8.63353E-01
   7.88927E-01  7.05947E-01  6.27196E-01  5.66086E-01  5.22084E-01  4.90815E-01  4.69045E-01  4.53350E-01  4.42036E-01  4.35076E-01
   4.32371E-01  4.33547E-01  4.38279E-01  4.46020E-01  4.56465E-01  4.70222E-01  4.86759E-01  5.05614E-01  5.26247E-01  5.49794E-01
   5.82021E-01  6.31176E-01  7.09085E-01  8.21958E-01  9.67323E-01  1.16190E+00  1.41270E+00  1.71163E+00  2.05348E+00  2.34106E+00
   2.54521E+00  2.57822E+00  2.44737E+00  2.19631E+00  1.86874E+00  1.56509E+00  1.29646E+00  1.11787E+00  9.78474E-01  8.80166E-01
   8.01034E-01  7.21305E-01  6.53354E-01  6.02117E-01  5.65544E-01  5.43879E-01  5.33455E-01  5.32858E-01  5.37429E-01  5.41634E-01
   5.44984E-01  5.44526E-01  5.39180E-01  5.25245E-01  5.01685E-01  4.74634E-01  4.47626E-01  4.26914E-01  4.13595E-01  4.07668E-01
   4.07593E-01  4.04533E-01  3.97593E-01  3.84849E-01  3.70139E-01  3.57078E-01  3.46019E-01  3.39092E-01  3.35512E-01  3.35703E-01
   3.36548E-01  3.37561E-01  3.39266E-01  3.42781E-01  3.48989E-01  3.59420E-01  3.75492E-01  3.96568E-01  4.20386E-01  4.46789E-01
   4.77399E-01  5.05782E-01  5.25106E-01  5.22106E-01  4.95788E-01  4.55761E-01  4.15628E-01  4.00103E-01  4.14953E-01  4.59180E-01
   5.09384E-01  5.35293E-01  5.21597E-01  4.62843E-01  3.87292E-01  3.11920E-01  2.49636E-01  2.08507E-01  1.85876E-01  1.77813E-01
   1.70439E-01  1.66664E-01  1.68876E-01  1.81683E-01  2.06731E-01  2.42103E-01  2.91822E-01  3.47371E-01  4.07076E-01  4.58592E-01
   4.92188E-01  5.08359E-01  5.02323E-01  4.97402E-01  5.05684E-01  5.41999E-01  6.00505E-01  6.56667E-01  7.02813E-01  7.17078E-01
   7.08564E-01  6.83084E-01  6.47262E-01  6.12760E-01  5.77023E-01  5.47888E-01  5.06250E-01  4.61701E-01  4.23463E-01  3.99376E-01
   3.92376E-01  3.94305E-01  4.06482E-01  4.19574E-01  4.34137E-01  4.46178E-01  4.58254E-01  4.73247E-01  4.92440E-01  5.26440E-01
   5.76261E-01  6.43716E-01  7.06357E-01  7.57212E-01  7.87840E-01  8.03933E-01  8.17013E-01  8.23117E-01  8.38717E-01  8.64038E-01
   9.03523E-01  9.42990E-01  9.61975E-01  9.65543E-01  9.47636E-01  9.14322E-01  8.71578E-01  8.18897E-01  7.70079E-01  7.23920E-01
   6.88847E-01  6.62737E-01  6.47643E-01  6.53396E-01  6.91481E-01  7.71119E-01  8.94296E-01  1.06037E+00  1.24763E+00  1.42104E+00
   1.55090E+00  1.60367E+00  1.56838E+00  1.45447E+00  1.29544E+00  1.13129E+00  9.92481E-01  8.87359E-01  8.19239E-01  7.98344E-01
   8.20697E-01  8.78234E-01  9.63163E-01  1.06095E+00  1.14092E+00  1.18548E+00  1.18951E+00  1.15744E+00  1.10797E+00  1.05401E+00
   1.01080E+00  9.79307E-01  9.58376E-01  9.44824E-01  9.34598E-01  9.27518E-01  9.22284E-01  9.17892E-01  9.16207E-01  9.15424E-01
   9.15392E-01  9.15174E-01  9.16777E-01  9.24863E-01  9.38684E-01  9.57592E-01  9.78081E-01  9.96912E-01  1.01268E+00  1.02192E+00
   1.02439E+00  1.01946E+00  1.01185E+00  1.00611E+00  1.00738E+00  1.02325E+00  1.05618E+00  1.10416E+00  1.15984E+00  1.21390E+00
   1.25684E+00  1.28822E+00  1.30748E+00  1.31863E+00  1.32291E+00  1.32615E+00  1.33816E+00  1.36344E+00  1.40928E+00  1.46578E+00
   1.53261E+00  1.60516E+00  1.69199E+00  1.79972E+00  1.93069E+00  2.08434E+00  2.27872E+00  2.52660E+00  2.80612E+00  3.16854E+00
   3.69321E+00  4.32209E+00  4.99127E+00  5.35910E+00  5.33378E+00  4.88700E+00  4.15810E+00  3.40059E+00  2.67542E+00  2.15479E+00
   1.77461E+00  1.58113E+00  1.39950E+00  1.18764E+00  1.01305E+00  8.80009E-01  7.75932E-01  6.93756E-01  6.29081E-01  5.81568E-01
   5.47550E-01  5.23079E-01  5.05662E-01  4.91713E-01  4.78785E-01  4.65936E-01  4.53193E-01  4.41060E-01  4.28927E-01  4.16036E-01
   4.00559E-01  3.83167E-01  3.65349E-01  3.48716E-01  3.35315E-01  3.25648E-01  3.19576E-01  3.16034E-01  3.14031E-01  3.13822E-01
   3.14852E-01  3.17401E-01  3.20416E-01  3.22525E-01  3.22895E-01  3.20815E-01  3.17718E-01  3.14169E-01  3.11272E-01  3.09806E-01
   3.09745E-01  3.11316E-01  3.13158E-01  3.15134E-01  3.16913E-01  3.18280E-01  3.19416E-01  3.19971E-01  3.20429E-01  3.20612E-01
   3.20955E-01  3.21128E-01  3.21324E-01  3.21804E-01  3.22638E-01  3.23683E-01  3.24729E-01  3.25524E-01  3.25814E-01  3.25615E-01
   3.24862E-01  3.23703E-01  3.22190E-01  3.20492E-01  3.18644E-01  3.16569E-01  3.14316E-01  3.11938E-01  3.09477E-01  3.06955E-01
   3.04402E-01  3.01856E-01  2.99343E-01  2.96889E-01  2.94517E-01  2.92252E-01  2.90115E-01  2.88136E-01  2.86341E-01  2.84755E-01
   2.83394E-01  2.82274E-01  2.81402E-01  2.80788E-01  2.80437E-01  2.80352E-01  2.80535E-01  2.80985E-01  2.81697E-01  2.82664E-01
   2.83873E-01  2.85314E-01  2.86973E-01  2.88837E-01  2.90893E-01  2.93124E-01  2.95511E-01  2.98034E-01  3.00672E-01  3.03403E-01
   3.06208E-01  3.09066E-01  3.11961E-01  3.14874E-01  3.17785E-01  3.20679E-01  3.23537E-01  3.26347E-01  3.29094E-01  3.31766E-01
   3.34352E-01  3.36840E-01  3.39222E-01  3.41492E-01  3.43644E-01  3.45674E-01  3.47578E-01  3.49354E-01  3.51002E-01  3.52522E-01
