 LCModel (Version 6.3-0D) Copyright: S.W. Provencher.          Ref.: Magn. Reson. Med. 30:672-679 (1993).                
 S12_PRESS_35
 Data of: Dept of Radiology, The Johns Hopkins University School of Medicine
 17-March-2020  16:37
 32 lines in following concentration table = NCONC+1
    Conc.  %SD /Cr+PCr  Metabolite                                         
    1.460  43%   0.674 Asc                                                 
    8.110  13%   3.746 Asp                                                 
    3.737  16%   1.726 Cr                                                  
    1.972  29%   0.911 GABA                                                
    1.556  27%   0.719 GPC                                                 
    2.478  10%   1.145 GSH                                                 
    5.000  17%   2.310 Gln                                                 
   22.913   5%  10.585 Glu                                                 
   14.323   4%   6.616 Ins                                                 
    1.054  45%   0.487 Lac                                                 
   21.983   3%  10.155 NAA                                                 
    2.671  16%   1.234 NAAG                                                
    1.320  32%   0.610 PCh                                                 
   13.581   5%   6.274 PCr                                                 
    3.415  34%   1.577 PE                                                  
    0.508  19%   0.234 Scyllo                                              
    3.644  22%   1.683 Tau                                                 
    5.601   8%   2.588 -CrCH2                                              
    2.876   3%   1.329 PCh+GPC                                             
   17.317   2%   8.000 Cr+PCr                                              
   24.654   2%  11.389 NAA+NAAG                                            
   27.913   5%  12.895 Glu+Gln                                             
   29.836  36%  13.783 Lip13a                                              
    0.000 999%   0.000 Lip13b                                              
    8.394  43%   3.878 Lip09                                               
   17.519  23%   8.093 MM09                                                
   10.581  13%   4.888 Lip20                                               
    5.562  75%   2.570 MM20                                                
   10.230  25%   4.726 MM12                                                
   14.139  13%   6.532 MM14                                                
   14.798  28%   6.836 MM17                                                
   6 lines in following misc. output table
  FWHM = 0.033 ppm    S/N =  45                                            
  Data shift = 0.000 ppm                                                   
  Ph:  -5 deg       0.6 deg/ppm                                            
  alphaB,S = 2.6E-02,   3.9E-01                                            
   26 spline knots.   Ns = 8(1)                                            
   2 inflections.     1 extrema                                            
  734 points on ppm-axis = NY
      4.000000     3.995223     3.990446     3.985669     3.980892     3.976115     3.971338     3.966561     3.961784     3.957007
      3.952230     3.947453     3.942677     3.937900     3.933123     3.928346     3.923569     3.918792     3.914015     3.909238
      3.904461     3.899684     3.894907     3.890130     3.885353     3.880576     3.875799     3.871022     3.866245     3.861468
      3.856691     3.851914     3.847137     3.842360     3.837584     3.832807     3.828030     3.823253     3.818476     3.813699
      3.808922     3.804145     3.799368     3.794591     3.789814     3.785037     3.780260     3.775483     3.770706     3.765929
      3.761152     3.756375     3.751598     3.746821     3.742044     3.737267     3.732491     3.727714     3.722937     3.718160
      3.713383     3.708606     3.703829     3.699052     3.694275     3.689498     3.684721     3.679944     3.675167     3.670390
      3.665613     3.660836     3.656059     3.651282     3.646505     3.641728     3.636951     3.632174     3.627398     3.622621
      3.617844     3.613067     3.608290     3.603513     3.598736     3.593959     3.589182     3.584405     3.579628     3.574851
      3.570074     3.565297     3.560520     3.555743     3.550966     3.546189     3.541412     3.536635     3.531858     3.527081
      3.522305     3.517528     3.512751     3.507974     3.503197     3.498420     3.493643     3.488866     3.484089     3.479312
      3.474535     3.469758     3.464981     3.460204     3.455427     3.450650     3.445873     3.441096     3.436319     3.431542
      3.426765     3.421988     3.417212     3.412435     3.407658     3.402881     3.398104     3.393327     3.388550     3.383773
      3.378996     3.374219     3.369442     3.364665     3.359888     3.355111     3.350334     3.345557     3.340780     3.336003
      3.331226     3.326449     3.321672     3.316895     3.312119     3.307342     3.302565     3.297788     3.293011     3.288234
      3.283457     3.278680     3.273903     3.269126     3.264349     3.259572     3.254795     3.250018     3.245241     3.240464
      3.235687     3.230910     3.226133     3.221356     3.216579     3.211802     3.207026     3.202249     3.197472     3.192695
      3.187918     3.183141     3.178364     3.173587     3.168810     3.164033     3.159256     3.154479     3.149702     3.144925
      3.140148     3.135371     3.130594     3.125817     3.121040     3.116263     3.111486     3.106709     3.101933     3.097156
      3.092379     3.087602     3.082825     3.078048     3.073271     3.068494     3.063717     3.058940     3.054163     3.049386
      3.044609     3.039832     3.035055     3.030278     3.025501     3.020724     3.015947     3.011170     3.006393     3.001616
      2.996840     2.992063     2.987286     2.982509     2.977732     2.972955     2.968178     2.963401     2.958624     2.953847
      2.949070     2.944293     2.939516     2.934739     2.929962     2.925185     2.920408     2.915631     2.910854     2.906077
      2.901300     2.896523     2.891747     2.886970     2.882193     2.877416     2.872639     2.867862     2.863085     2.858308
      2.853531     2.848754     2.843977     2.839200     2.834423     2.829646     2.824869     2.820092     2.815315     2.810538
      2.805761     2.800984     2.796207     2.791430     2.786654     2.781877     2.777100     2.772323     2.767546     2.762769
      2.757992     2.753215     2.748438     2.743661     2.738884     2.734107     2.729330     2.724553     2.719776     2.714999
      2.710222     2.705445     2.700668     2.695891     2.691114     2.686337     2.681561     2.676784     2.672007     2.667230
      2.662453     2.657676     2.652899     2.648122     2.643345     2.638568     2.633791     2.629014     2.624237     2.619460
      2.614683     2.609906     2.605129     2.600352     2.595575     2.590798     2.586021     2.581244     2.576468     2.571691
      2.566914     2.562137     2.557360     2.552583     2.547806     2.543029     2.538252     2.533475     2.528698     2.523921
      2.519144     2.514367     2.509590     2.504813     2.500036     2.495259     2.490482     2.485705     2.480928     2.476151
      2.471375     2.466598     2.461821     2.457044     2.452267     2.447490     2.442713     2.437936     2.433159     2.428382
      2.423605     2.418828     2.414051     2.409274     2.404497     2.399720     2.394943     2.390166     2.385389     2.380612
      2.375835     2.371058     2.366282     2.361505     2.356728     2.351951     2.347174     2.342397     2.337620     2.332843
      2.328066     2.323289     2.318512     2.313735     2.308958     2.304181     2.299404     2.294627     2.289850     2.285073
      2.280296     2.275519     2.270742     2.265965     2.261189     2.256412     2.251635     2.246858     2.242081     2.237304
      2.232527     2.227750     2.222973     2.218196     2.213419     2.208642     2.203865     2.199088     2.194311     2.189534
      2.184757     2.179980     2.175203     2.170426     2.165649     2.160872     2.156096     2.151319     2.146542     2.141765
      2.136988     2.132211     2.127434     2.122657     2.117880     2.113103     2.108326     2.103549     2.098772     2.093995
      2.089218     2.084441     2.079664     2.074887     2.070110     2.065333     2.060556     2.055779     2.051003     2.046226
      2.041449     2.036672     2.031895     2.027118     2.022341     2.017564     2.012787     2.008010     2.003233     1.998456
      1.993679     1.988902     1.984125     1.979348     1.974571     1.969794     1.965017     1.960240     1.955463     1.950686
      1.945910     1.941133     1.936356     1.931579     1.926802     1.922025     1.917248     1.912471     1.907694     1.902917
      1.898140     1.893363     1.888586     1.883809     1.879032     1.874255     1.869478     1.864701     1.859924     1.855147
      1.850370     1.845593     1.840816     1.836040     1.831263     1.826486     1.821709     1.816932     1.812155     1.807378
      1.802601     1.797824     1.793047     1.788270     1.783493     1.778716     1.773939     1.769162     1.764385     1.759608
      1.754831     1.750054     1.745277     1.740500     1.735723     1.730947     1.726170     1.721393     1.716616     1.711839
      1.707062     1.702285     1.697508     1.692731     1.687954     1.683177     1.678400     1.673623     1.668846     1.664069
      1.659292     1.654515     1.649738     1.644961     1.640184     1.635407     1.630630     1.625854     1.621077     1.616300
      1.611523     1.606746     1.601969     1.597192     1.592415     1.587638     1.582861     1.578084     1.573307     1.568530
      1.563753     1.558976     1.554199     1.549422     1.544645     1.539868     1.535091     1.530314     1.525537     1.520761
      1.515984     1.511207     1.506430     1.501653     1.496876     1.492099     1.487322     1.482545     1.477768     1.472991
      1.468214     1.463437     1.458660     1.453883     1.449106     1.444329     1.439552     1.434775     1.429998     1.425221
      1.420444     1.415668     1.410891     1.406114     1.401337     1.396560     1.391783     1.387006     1.382229     1.377452
      1.372675     1.367898     1.363121     1.358344     1.353567     1.348790     1.344013     1.339236     1.334459     1.329682
      1.324905     1.320128     1.315351     1.310575     1.305798     1.301021     1.296244     1.291467     1.286690     1.281913
      1.277136     1.272359     1.267582     1.262805     1.258028     1.253251     1.248474     1.243697     1.238920     1.234143
      1.229366     1.224589     1.219812     1.215035     1.210258     1.205482     1.200705     1.195928     1.191151     1.186374
      1.181597     1.176820     1.172043     1.167266     1.162489     1.157712     1.152935     1.148158     1.143381     1.138604
      1.133827     1.129050     1.124273     1.119496     1.114719     1.109942     1.105165     1.100389     1.095612     1.090835
      1.086058     1.081281     1.076504     1.071727     1.066950     1.062173     1.057396     1.052619     1.047842     1.043065
      1.038288     1.033511     1.028734     1.023957     1.019180     1.014403     1.009626     1.004849     1.000072     0.995296
      0.990519     0.985742     0.980965     0.976188     0.971411     0.966634     0.961857     0.957080     0.952303     0.947526
      0.942749     0.937972     0.933195     0.928418     0.923641     0.918864     0.914087     0.909310     0.904533     0.899756
      0.894979     0.890203     0.885426     0.880649     0.875872     0.871095     0.866318     0.861541     0.856764     0.851987
      0.847210     0.842433     0.837656     0.832879     0.828102     0.823325     0.818548     0.813771     0.808994     0.804217
      0.799440     0.794663     0.789886     0.785110     0.780333     0.775556     0.770779     0.766002     0.761225     0.756448
      0.751671     0.746894     0.742117     0.737340     0.732563     0.727786     0.723009     0.718232     0.713455     0.708678
      0.703901     0.699124     0.694347     0.689570     0.684793     0.680017     0.675240     0.670463     0.665686     0.660909
      0.656132     0.651355     0.646578     0.641801     0.637024     0.632247     0.627470     0.622693     0.617916     0.613139
      0.608362     0.603585     0.598808     0.594031     0.589254     0.584477     0.579700     0.574924     0.570147     0.565370
      0.560593     0.555816     0.551039     0.546262     0.541485     0.536708     0.531931     0.527154     0.522377     0.517600
      0.512823     0.508046     0.503269     0.498492
 NY phased data points follow
   2.02530E-01  2.28382E-01  2.33276E-01  2.52027E-01  2.42733E-01  3.18184E-01  3.11091E-01  2.74382E-01  3.24084E-01  3.31354E-01
   4.22057E-01  3.66762E-01  4.18532E-01  5.22159E-01  5.90639E-01  6.92830E-01  7.61158E-01  8.00507E-01  9.95648E-01  1.10147E+00
   1.14661E+00  1.30508E+00  1.37592E+00  1.42773E+00  1.38236E+00  1.39573E+00  1.37574E+00  1.26641E+00  1.14094E+00  1.03067E+00
   9.15482E-01  8.41893E-01  7.91999E-01  7.59566E-01  7.04656E-01  6.93062E-01  6.38739E-01  6.92488E-01  6.24179E-01  6.93738E-01
   7.34959E-01  7.55235E-01  7.14683E-01  7.98965E-01  8.38189E-01  8.01508E-01  8.34791E-01  8.83388E-01  9.41412E-01  9.11392E-01
   1.04973E+00  9.88006E-01  1.08809E+00  1.10683E+00  1.13189E+00  1.21635E+00  1.27163E+00  1.28491E+00  1.27091E+00  1.22330E+00
   1.15564E+00  1.08447E+00  1.07810E+00  9.86520E-01  9.72624E-01  9.83900E-01  1.03268E+00  1.05187E+00  1.08131E+00  1.02443E+00
   9.95416E-01  9.51994E-01  8.84606E-01  8.63892E-01  8.21382E-01  7.96666E-01  8.44995E-01  8.99713E-01  9.35137E-01  1.03087E+00
   1.08294E+00  1.16171E+00  1.19103E+00  1.19264E+00  1.05448E+00  1.02860E+00  9.28456E-01  8.09136E-01  7.12242E-01  6.51072E-01
   6.26017E-01  6.57446E-01  6.70549E-01  7.81749E-01  8.88794E-01  1.06356E+00  1.24676E+00  1.37736E+00  1.48086E+00  1.58185E+00
   1.50197E+00  1.38836E+00  1.34434E+00  1.20599E+00  1.07628E+00  9.96354E-01  8.48386E-01  6.92367E-01  6.05110E-01  6.00191E-01
   5.61312E-01  5.85284E-01  6.15113E-01  6.00790E-01  5.85408E-01  6.26330E-01  6.15918E-01  6.63462E-01  6.59912E-01  6.27742E-01
   5.92931E-01  5.63840E-01  5.83184E-01  5.96342E-01  5.62846E-01  5.29105E-01  5.73103E-01  5.87302E-01  5.21400E-01  4.86706E-01
   4.94959E-01  4.17738E-01  4.28145E-01  4.29639E-01  4.74209E-01  4.32319E-01  4.17397E-01  5.36334E-01  4.92870E-01  4.66581E-01
   4.84089E-01  5.25214E-01  5.29455E-01  5.58642E-01  5.01796E-01  5.10005E-01  4.49687E-01  4.07338E-01  4.07234E-01  3.15775E-01
   3.42426E-01  4.33376E-01  4.08112E-01  4.74688E-01  4.83322E-01  5.12019E-01  5.62254E-01  6.97376E-01  7.30835E-01  7.80913E-01
   7.95662E-01  8.39946E-01  8.23963E-01  8.52845E-01  8.97887E-01  9.59111E-01  1.00534E+00  1.21137E+00  1.30745E+00  1.51501E+00
   1.70919E+00  1.83297E+00  1.90439E+00  1.84631E+00  1.72733E+00  1.54643E+00  1.26110E+00  1.10046E+00  8.55515E-01  8.54156E-01
   7.35034E-01  6.39270E-01  5.86556E-01  5.37032E-01  4.60894E-01  4.98488E-01  3.80848E-01  4.40188E-01  4.84301E-01  4.34189E-01
   4.22145E-01  4.26379E-01  4.29380E-01  4.57425E-01  5.01804E-01  4.89304E-01  5.23756E-01  5.50268E-01  5.94278E-01  6.36224E-01
   7.54785E-01  8.08238E-01  9.26500E-01  1.08422E+00  1.36408E+00  1.55680E+00  1.90744E+00  2.30599E+00  2.61433E+00  2.89461E+00
   3.00699E+00  2.94997E+00  2.75672E+00  2.35054E+00  1.92661E+00  1.59813E+00  1.33738E+00  1.15996E+00  9.32181E-01  8.56351E-01
   7.22555E-01  6.91809E-01  6.14258E-01  5.82112E-01  5.37093E-01  5.55331E-01  5.41100E-01  4.92164E-01  4.85164E-01  4.90894E-01
   4.55095E-01  5.02672E-01  5.16383E-01  4.65618E-01  4.58501E-01  4.37600E-01  4.16447E-01  4.19207E-01  3.98901E-01  3.79305E-01
   3.73405E-01  3.66986E-01  3.16861E-01  3.43909E-01  3.07881E-01  2.82772E-01  2.49738E-01  3.29836E-01  2.92145E-01  2.41327E-01
   2.39361E-01  2.18643E-01  2.57428E-01  2.67902E-01  2.52404E-01  3.18479E-01  3.57728E-01  3.16437E-01  3.81052E-01  3.96144E-01
   4.02917E-01  4.11027E-01  5.06317E-01  4.67570E-01  4.28196E-01  3.84468E-01  4.04752E-01  3.29318E-01  3.40221E-01  4.32382E-01
   3.88740E-01  4.27272E-01  4.73759E-01  3.94519E-01  3.22249E-01  2.92801E-01  2.37038E-01  2.29071E-01  1.82772E-01  2.17984E-01
   1.71751E-01  1.74511E-01  2.00882E-01  2.16625E-01  2.42110E-01  2.47013E-01  3.29759E-01  3.56103E-01  4.07821E-01  4.71249E-01
   4.33096E-01  5.38718E-01  4.81698E-01  5.27831E-01  5.44283E-01  5.71691E-01  5.82035E-01  6.62069E-01  6.81073E-01  6.61996E-01
   6.88748E-01  6.90301E-01  6.09397E-01  6.19937E-01  5.71923E-01  5.44346E-01  4.97906E-01  4.39560E-01  3.81062E-01  4.24457E-01
   3.94818E-01  4.38512E-01  3.61045E-01  4.11068E-01  4.49662E-01  4.37832E-01  4.60083E-01  5.27857E-01  5.31933E-01  5.70642E-01
   5.86011E-01  6.34579E-01  6.87175E-01  6.95370E-01  6.31546E-01  7.07982E-01  7.84013E-01  7.29537E-01  7.94343E-01  8.39239E-01
   8.51667E-01  8.23586E-01  7.95021E-01  8.35877E-01  8.36010E-01  7.28180E-01  7.49299E-01  6.91472E-01  7.41592E-01  6.97646E-01
   6.90131E-01  7.19165E-01  7.40521E-01  8.06880E-01  7.99289E-01  9.53625E-01  1.07104E+00  1.18503E+00  1.34942E+00  1.40917E+00
   1.47458E+00  1.47457E+00  1.41065E+00  1.31473E+00  1.24605E+00  1.16187E+00  9.97496E-01  9.31038E-01  8.48916E-01  8.80270E-01
   8.96660E-01  9.56918E-01  1.04821E+00  1.14488E+00  1.17413E+00  1.19368E+00  1.23133E+00  1.22743E+00  1.19982E+00  1.06963E+00
   1.08403E+00  1.06114E+00  1.01775E+00  1.04106E+00  9.55426E-01  9.71497E-01  9.11964E-01  9.39205E-01  9.47894E-01  8.72852E-01
   9.23800E-01  8.91580E-01  8.78018E-01  8.91831E-01  8.64220E-01  8.93323E-01  9.28440E-01  9.18212E-01  8.74585E-01  9.25410E-01
   9.00212E-01  8.63169E-01  9.03088E-01  9.00732E-01  9.10829E-01  9.40000E-01  9.55541E-01  9.88873E-01  1.07349E+00  1.12747E+00
   1.22773E+00  1.18517E+00  1.24202E+00  1.34584E+00  1.42468E+00  1.42273E+00  1.37520E+00  1.42733E+00  1.42923E+00  1.51977E+00
   1.62604E+00  1.69451E+00  1.81340E+00  1.97614E+00  2.12599E+00  2.33278E+00  2.55764E+00  2.78596E+00  3.04109E+00  3.46663E+00
   3.85942E+00  4.17021E+00  4.47305E+00  4.53992E+00  4.47997E+00  4.12595E+00  3.43596E+00  2.70549E+00  2.08387E+00  1.56230E+00
   1.41158E+00  1.22760E+00  1.12555E+00  8.78254E-01  7.99020E-01  6.92856E-01  6.84228E-01  6.10796E-01  6.22004E-01  6.17106E-01
   5.24325E-01  4.89469E-01  4.84301E-01  4.42205E-01  4.83215E-01  4.91300E-01  4.39966E-01  3.89861E-01  4.39028E-01  3.92222E-01
   3.96937E-01  3.98274E-01  3.63057E-01  3.79425E-01  3.81325E-01  3.11083E-01  3.45093E-01  2.86262E-01  3.04078E-01  3.10012E-01
   3.24271E-01  3.15675E-01  2.99616E-01  2.86734E-01  2.74460E-01  3.01614E-01  2.74973E-01  2.65664E-01  2.40824E-01  2.44765E-01
   3.13864E-01  2.56559E-01  2.50671E-01  2.75179E-01  3.21367E-01  2.66406E-01  2.95527E-01  2.35304E-01  2.64130E-01  3.13959E-01
   2.86393E-01  3.07924E-01  2.82133E-01  2.54357E-01  2.46711E-01  2.89901E-01  2.81929E-01  3.28713E-01  2.42415E-01  3.03384E-01
   2.65443E-01  2.55065E-01  2.85842E-01  2.46721E-01  3.06175E-01  3.51409E-01  2.90965E-01  2.93847E-01  3.10120E-01  3.05083E-01
   2.73424E-01  3.17266E-01  2.95367E-01  2.76752E-01  2.79391E-01  2.59480E-01  2.32413E-01  2.83669E-01  3.05882E-01  1.85234E-01
   1.65363E-01  1.34676E-01  1.78143E-01  1.42078E-01  1.57463E-01  1.47182E-01  1.04463E-01  1.34689E-01  1.13340E-01  7.73503E-02
   1.14453E-01  6.22951E-02  6.49652E-02  4.22257E-02  1.18252E-01  5.37482E-02  7.11076E-02  4.97950E-02  9.60994E-02  9.29608E-02
   6.70236E-02  5.86718E-02  7.93427E-02  1.11892E-01  5.48676E-02  1.08857E-01  1.57977E-01  1.34719E-01  1.66305E-01  1.97992E-01
   2.00852E-01  2.23717E-01  2.05831E-01  3.02148E-01  2.56567E-01  2.86547E-01  2.82496E-01  3.30411E-01  2.99858E-01  3.44993E-01
   3.21424E-01  3.28230E-01  2.81844E-01  3.11267E-01  3.72965E-01  3.62959E-01  3.54626E-01  3.39471E-01  3.40964E-01  4.40269E-01
   4.00148E-01  4.24553E-01  3.74022E-01  3.19354E-01  3.27430E-01  2.60154E-01  2.52063E-01  1.97209E-01  1.66165E-01  2.54752E-01
   2.27916E-01  1.87450E-01  1.84913E-01  2.25992E-01  1.79147E-01  2.17460E-01  2.88485E-01  1.78713E-01  1.84796E-01  1.80548E-01
   1.90931E-01  1.46399E-01  1.57350E-01  2.41019E-01  2.23970E-01  2.34741E-01  2.28697E-01  1.76178E-01  2.20436E-01  1.69364E-01
   2.69018E-01  2.34913E-01  1.99751E-01  2.02777E-01  1.88269E-01  2.35175E-01  1.75902E-01  1.62735E-01  1.46676E-01  1.44145E-01
   9.38268E-02  1.04715E-01  9.08556E-02  7.71429E-02  6.35084E-02  6.72311E-02  4.93293E-02  5.98632E-02  7.96321E-02  1.22866E-02
   1.06935E-02 -3.26529E-02 -1.05397E-02 -3.17623E-02 -2.60539E-02 -5.23691E-02  2.30389E-02 -1.45323E-03 -4.23479E-02 -5.13982E-02
   3.92082E-03 -3.81683E-02 -5.01220E-02  1.07164E-02  3.67501E-02  1.06902E-01  1.60728E-01  1.01608E-01  1.32783E-01  2.14272E-01
   1.71854E-01  1.97567E-01  2.37377E-01  2.48648E-01  3.02697E-01  2.94643E-01  3.28834E-01  3.05869E-01  3.46965E-01  3.73579E-01
   4.05592E-01  4.04691E-01  4.64989E-01  4.62093E-01  4.68994E-01  4.18632E-01  4.80513E-01  5.17085E-01  4.36499E-01  5.36963E-01
   5.05197E-01  5.39481E-01  5.38215E-01  5.19432E-01  5.30353E-01  6.10122E-01  4.88613E-01  5.32481E-01  5.09967E-01  4.74608E-01
   4.65057E-01  4.41013E-01  3.84942E-01  4.49134E-01  3.79732E-01  3.50440E-01  3.13838E-01  2.77952E-01  2.86356E-01  2.30874E-01
   2.07793E-01  2.39646E-01  1.70499E-01  2.00297E-01  1.64363E-01  1.73642E-01  1.49114E-01  1.20325E-01  1.20785E-01  1.26169E-01
   8.10700E-03  9.77650E-02  2.40298E-02  5.73630E-02  1.96654E-02  8.29534E-02  9.46769E-02  1.52750E-02  5.09303E-02  6.51796E-02
   6.60679E-03  2.14790E-02  1.58045E-02 -4.38191E-02 -6.62211E-03 -1.09186E-02 -5.87881E-03 -3.28352E-02  1.68155E-02 -5.40253E-02
   2.59933E-02 -1.18905E-01  8.99559E-03 -2.00366E-02 -4.61259E-02 -4.62059E-02 -3.92850E-02  3.38446E-02 -5.26915E-02 -5.78403E-03
  -8.40195E-03 -6.67973E-02 -1.32571E-02  2.02540E-02 -9.68068E-03 -3.92695E-02 -2.75892E-02 -1.94994E-02 -2.46516E-02  8.87039E-03
   3.22812E-03 -1.61173E-02 -4.71350E-02 -3.57487E-02 -8.90041E-03 -1.05808E-01  4.63524E-03 -9.56116E-02 -4.26134E-02  3.32400E-03
  -5.59955E-02 -2.84423E-02 -3.49870E-02 -2.45411E-02
 NY points of the fit to the data follow
   3.07124E-01  3.00356E-01  2.80624E-01  2.61949E-01  2.53046E-01  2.57333E-01  2.72945E-01  2.85190E-01  3.01200E-01  3.23552E-01
   3.51690E-01  3.93160E-01  4.59830E-01  5.26775E-01  5.90122E-01  6.79481E-01  7.47333E-01  8.47531E-01  9.64251E-01  1.06916E+00
   1.18015E+00  1.27576E+00  1.37085E+00  1.44562E+00  1.44809E+00  1.39947E+00  1.32460E+00  1.21626E+00  1.15990E+00  1.08693E+00
   9.78594E-01  8.75060E-01  7.93242E-01  7.28902E-01  6.92085E-01  6.62294E-01  6.31401E-01  6.16776E-01  6.17386E-01  6.32908E-01
   6.63580E-01  6.97943E-01  7.31918E-01  7.63630E-01  7.91586E-01  8.20562E-01  8.46652E-01  8.69964E-01  9.02469E-01  9.34343E-01
   9.78025E-01  1.02747E+00  1.07753E+00  1.12885E+00  1.18168E+00  1.23746E+00  1.27959E+00  1.29567E+00  1.27811E+00  1.24285E+00
   1.19733E+00  1.15358E+00  1.10575E+00  1.05825E+00  1.01645E+00  9.96126E-01  9.92289E-01  9.91913E-01  9.90032E-01  9.70800E-01
   9.39058E-01  9.04226E-01  8.74343E-01  8.52941E-01  8.41769E-01  8.42378E-01  8.60987E-01  9.06449E-01  9.75427E-01  1.05300E+00
   1.12796E+00  1.18388E+00  1.20366E+00  1.18136E+00  1.10772E+00  9.90335E-01  8.55049E-01  7.33581E-01  6.56089E-01  6.18478E-01
   6.16428E-01  6.49960E-01  7.02295E-01  7.93372E-01  9.17532E-01  1.05304E+00  1.19466E+00  1.32130E+00  1.42364E+00  1.47165E+00
   1.45920E+00  1.39978E+00  1.30766E+00  1.20152E+00  1.11001E+00  1.01042E+00  8.98125E-01  7.98098E-01  7.16994E-01  6.64108E-01
   6.40612E-01  6.42767E-01  6.47093E-01  6.54343E-01  6.66759E-01  6.74199E-01  6.72284E-01  6.62671E-01  6.46505E-01  6.27008E-01
   6.06717E-01  5.84087E-01  5.57964E-01  5.34087E-01  5.15968E-01  5.08197E-01  5.02030E-01  5.00015E-01  4.94760E-01  4.84628E-01
   4.71411E-01  4.54271E-01  4.41002E-01  4.35995E-01  4.42767E-01  4.59560E-01  4.76604E-01  4.90192E-01  5.02989E-01  5.12286E-01
   5.19230E-01  5.22596E-01  5.22588E-01  5.19297E-01  5.07708E-01  4.90247E-01  4.61421E-01  4.23801E-01  3.85774E-01  3.59477E-01
   3.53598E-01  3.74155E-01  4.05820E-01  4.45840E-01  4.93487E-01  5.40608E-01  5.99546E-01  6.51508E-01  6.96322E-01  7.34766E-01
   7.65745E-01  8.04689E-01  8.45836E-01  8.83787E-01  9.14887E-01  9.63033E-01  1.05099E+00  1.17590E+00  1.34567E+00  1.52173E+00
   1.68259E+00  1.81623E+00  1.88393E+00  1.87277E+00  1.74989E+00  1.52742E+00  1.28425E+00  1.06497E+00  8.97167E-01  8.12042E-01
   7.31544E-01  6.53647E-01  5.91259E-01  5.45280E-01  5.07633E-01  4.78706E-01  4.61436E-01  4.47805E-01  4.38149E-01  4.33019E-01
   4.32028E-01  4.34231E-01  4.40275E-01  4.50965E-01  4.65332E-01  4.84692E-01  5.09056E-01  5.40008E-01  5.82892E-01  6.44465E-01
   7.33759E-01  8.43557E-01  9.52614E-01  1.11955E+00  1.34293E+00  1.60378E+00  1.95297E+00  2.29439E+00  2.60365E+00  2.85578E+00
   2.97934E+00  2.96227E+00  2.74779E+00  2.37618E+00  1.98722E+00  1.60172E+00  1.29747E+00  1.11249E+00  9.24431E-01  7.84486E-01
   7.09228E-01  6.45446E-01  5.91241E-01  5.50532E-01  5.17811E-01  4.96112E-01  4.85394E-01  4.80743E-01  4.83181E-01  4.86016E-01
   4.86900E-01  4.87950E-01  4.81507E-01  4.69096E-01  4.50042E-01  4.25838E-01  4.03317E-01  3.80841E-01  3.64430E-01  3.57585E-01
   3.54533E-01  3.54145E-01  3.51575E-01  3.44279E-01  3.33043E-01  3.19009E-01  3.07618E-01  2.99053E-01  2.95231E-01  2.97288E-01
   2.98296E-01  3.01194E-01  3.06265E-01  3.13072E-01  3.22799E-01  3.32444E-01  3.42329E-01  3.63033E-01  3.85327E-01  4.11783E-01
   4.41035E-01  4.58241E-01  4.68145E-01  4.58485E-01  4.38521E-01  4.16692E-01  3.85249E-01  3.78155E-01  3.90728E-01  4.12216E-01
   4.46399E-01  4.63889E-01  4.52704E-01  4.13478E-01  3.48138E-01  2.81040E-01  2.19064E-01  1.75663E-01  1.65444E-01  1.56095E-01
   1.55116E-01  1.63945E-01  1.73230E-01  1.92710E-01  2.25325E-01  2.65083E-01  3.19166E-01  3.75697E-01  4.31208E-01  4.74353E-01
   4.99468E-01  5.12637E-01  5.10121E-01  5.09517E-01  5.20756E-01  5.43290E-01  5.77705E-01  6.16312E-01  6.45211E-01  6.55789E-01
   6.42069E-01  6.13924E-01  5.80549E-01  5.45165E-01  5.18629E-01  4.84441E-01  4.44151E-01  4.10191E-01  3.85780E-01  3.70044E-01
   3.68912E-01  3.79979E-01  3.95924E-01  4.22610E-01  4.38706E-01  4.49601E-01  4.68577E-01  4.84573E-01  5.16776E-01  5.56866E-01
   5.97320E-01  6.47606E-01  6.95714E-01  7.43581E-01  7.80465E-01  7.97831E-01  8.10755E-01  8.19519E-01  8.34666E-01  8.60105E-01
   8.74654E-01  8.86700E-01  8.89414E-01  8.87934E-01  8.71735E-01  8.33693E-01  7.95587E-01  7.61084E-01  7.31957E-01  7.23083E-01
   7.09956E-01  7.04009E-01  7.21654E-01  7.52700E-01  8.09385E-01  8.93888E-01  1.00297E+00  1.14000E+00  1.28726E+00  1.41405E+00
   1.49663E+00  1.51328E+00  1.46817E+00  1.37561E+00  1.24063E+00  1.10177E+00  9.80969E-01  8.84092E-01  8.39380E-01  8.46831E-01
   8.77739E-01  9.34933E-01  1.01000E+00  1.08897E+00  1.15611E+00  1.19398E+00  1.19792E+00  1.16895E+00  1.11674E+00  1.06539E+00
   1.01904E+00  9.84560E-01  9.61901E-01  9.43529E-01  9.31626E-01  9.24435E-01  9.18216E-01  9.13190E-01  9.08197E-01  9.02208E-01
   8.97742E-01  8.95715E-01  8.97192E-01  9.01889E-01  9.10728E-01  9.25928E-01  9.43803E-01  9.61820E-01  9.75268E-01  9.78757E-01
   9.77315E-01  9.70758E-01  9.65730E-01  9.62816E-01  9.66430E-01  9.85516E-01  1.01797E+00  1.05924E+00  1.11029E+00  1.15899E+00
   1.20300E+00  1.24104E+00  1.26351E+00  1.28028E+00  1.29316E+00  1.31019E+00  1.33811E+00  1.37450E+00  1.41517E+00  1.47742E+00
   1.56299E+00  1.67071E+00  1.80804E+00  1.97255E+00  2.17065E+00  2.34583E+00  2.51309E+00  2.79253E+00  3.04877E+00  3.42726E+00
   3.85342E+00  4.19642E+00  4.48598E+00  4.57616E+00  4.45843E+00  4.07663E+00  3.40782E+00  2.69091E+00  2.09630E+00  1.60508E+00
   1.42079E+00  1.25959E+00  1.06857E+00  9.42167E-01  8.48260E-01  7.67864E-01  6.97673E-01  6.36779E-01  5.89794E-01  5.54600E-01
   5.27831E-01  5.08384E-01  4.94742E-01  4.83981E-01  4.74165E-01  4.63884E-01  4.52080E-01  4.38904E-01  4.25343E-01  4.11413E-01
   3.96008E-01  3.79260E-01  3.62274E-01  3.45256E-01  3.30649E-01  3.19937E-01  3.12044E-01  3.06630E-01  3.02911E-01  3.00020E-01
   2.98601E-01  2.97263E-01  2.96019E-01  2.94168E-01  2.90799E-01  2.86082E-01  2.80570E-01  2.74429E-01  2.68955E-01  2.65015E-01
   2.62935E-01  2.62480E-01  2.62643E-01  2.63265E-01  2.64142E-01  2.64617E-01  2.64854E-01  2.65273E-01  2.65490E-01  2.66321E-01
   2.67839E-01  2.69497E-01  2.72107E-01  2.75388E-01  2.79205E-01  2.83523E-01  2.88105E-01  2.92804E-01  2.97239E-01  3.00986E-01
   3.03997E-01  3.06256E-01  3.07771E-01  3.08831E-01  3.09164E-01  3.08649E-01  3.07298E-01  3.05084E-01  3.01950E-01  2.97845E-01
   2.92753E-01  2.86673E-01  2.79616E-01  2.71609E-01  2.62696E-01  2.52928E-01  2.42382E-01  2.31155E-01  2.19351E-01  2.07099E-01
   1.94523E-01  1.81768E-01  1.68974E-01  1.56286E-01  1.43854E-01  1.31832E-01  1.20368E-01  1.09613E-01  9.97090E-02  9.07857E-02
   8.29681E-02  7.63692E-02  7.10888E-02  6.72130E-02  6.48101E-02  6.39333E-02  6.46162E-02  6.68709E-02  7.06908E-02  7.60469E-02
   8.28910E-02  9.11569E-02  1.00757E-01  1.11586E-01  1.23517E-01  1.36408E-01  1.50102E-01  1.64430E-01  1.79210E-01  1.94257E-01
   2.09376E-01  2.24376E-01  2.39065E-01  2.53258E-01  2.66780E-01  2.79469E-01  2.91187E-01  3.01820E-01  3.11289E-01  3.19563E-01
