 LCModel (Version 6.3-0D) Copyright: S.W. Provencher.          Ref.: Magn. Reson. Med. 30:672-679 (1993).                
 S06_PRESS_35
 Data of: Dept of Radiology, The Johns Hopkins University School of Medicine
 17-March-2020  16:33
 32 lines in following concentration table = NCONC+1
    Conc.  %SD /Cr+PCr  Metabolite                                         
    0.532 122%   0.226 Asc                                                 
    9.462  13%   4.024 Asp                                                 
    5.404  16%   2.298 Cr                                                  
    2.351  33%   1.000 GABA                                                
    2.214  21%   0.942 GPC                                                 
    2.169  12%   0.922 GSH                                                 
    5.953  19%   2.532 Gln                                                 
   26.412   4%  11.234 Glu                                                 
   13.314   5%   5.663 Ins                                                 
    0.000 999%   0.000 Lac                                                 
   23.801   3%  10.123 NAA                                                 
    2.837  20%   1.207 NAAG                                                
    0.677  67%   0.288 PCh                                                 
   13.406   7%   5.702 PCr                                                 
    6.075  22%   2.584 PE                                                  
    0.421  25%   0.179 Scyllo                                              
    1.674  51%   0.712 Tau                                                 
    4.815  11%   2.048 -CrCH2                                              
    2.891   4%   1.230 PCh+GPC                                             
   18.810   2%   8.000 Cr+PCr                                              
   26.638   2%  11.330 NAA+NAAG                                            
   32.365   5%  13.765 Glu+Gln                                             
    0.617 631%   0.262 Lip13a                                              
    0.000 999%   0.000 Lip13b                                              
    0.000 999%   0.000 Lip09                                               
   18.255  12%   7.764 MM09                                                
    0.380 318%   0.162 Lip20                                               
   33.473  12%  14.237 MM20                                                
    8.332  22%   3.544 MM12                                                
   15.325  25%   6.518 MM14                                                
   10.167  24%   4.324 MM17                                                
   6 lines in following misc. output table
  FWHM = 0.048 ppm    S/N =  46                                            
  Data shift = 0.000 ppm                                                   
  Ph:  -3 deg      -0.9 deg/ppm                                            
  alphaB,S = 4.0E-02,   4.0E-01                                            
   26 spline knots.   Ns =11(1)                                            
   4 inflections.     1 extrema                                            
  734 points on ppm-axis = NY
      4.000000     3.995223     3.990446     3.985669     3.980892     3.976115     3.971338     3.966561     3.961784     3.957007
      3.952230     3.947453     3.942677     3.937900     3.933123     3.928346     3.923569     3.918792     3.914015     3.909238
      3.904461     3.899684     3.894907     3.890130     3.885353     3.880576     3.875799     3.871022     3.866245     3.861468
      3.856691     3.851914     3.847137     3.842360     3.837584     3.832807     3.828030     3.823253     3.818476     3.813699
      3.808922     3.804145     3.799368     3.794591     3.789814     3.785037     3.780260     3.775483     3.770706     3.765929
      3.761152     3.756375     3.751598     3.746821     3.742044     3.737267     3.732491     3.727714     3.722937     3.718160
      3.713383     3.708606     3.703829     3.699052     3.694275     3.689498     3.684721     3.679944     3.675167     3.670390
      3.665613     3.660836     3.656059     3.651282     3.646505     3.641728     3.636951     3.632174     3.627398     3.622621
      3.617844     3.613067     3.608290     3.603513     3.598736     3.593959     3.589182     3.584405     3.579628     3.574851
      3.570074     3.565297     3.560520     3.555743     3.550966     3.546189     3.541412     3.536635     3.531858     3.527081
      3.522305     3.517528     3.512751     3.507974     3.503197     3.498420     3.493643     3.488866     3.484089     3.479312
      3.474535     3.469758     3.464981     3.460204     3.455427     3.450650     3.445873     3.441096     3.436319     3.431542
      3.426765     3.421988     3.417212     3.412435     3.407658     3.402881     3.398104     3.393327     3.388550     3.383773
      3.378996     3.374219     3.369442     3.364665     3.359888     3.355111     3.350334     3.345557     3.340780     3.336003
      3.331226     3.326449     3.321672     3.316895     3.312119     3.307342     3.302565     3.297788     3.293011     3.288234
      3.283457     3.278680     3.273903     3.269126     3.264349     3.259572     3.254795     3.250018     3.245241     3.240464
      3.235687     3.230910     3.226133     3.221356     3.216579     3.211802     3.207026     3.202249     3.197472     3.192695
      3.187918     3.183141     3.178364     3.173587     3.168810     3.164033     3.159256     3.154479     3.149702     3.144925
      3.140148     3.135371     3.130594     3.125817     3.121040     3.116263     3.111486     3.106709     3.101933     3.097156
      3.092379     3.087602     3.082825     3.078048     3.073271     3.068494     3.063717     3.058940     3.054163     3.049386
      3.044609     3.039832     3.035055     3.030278     3.025501     3.020724     3.015947     3.011170     3.006393     3.001616
      2.996840     2.992063     2.987286     2.982509     2.977732     2.972955     2.968178     2.963401     2.958624     2.953847
      2.949070     2.944293     2.939516     2.934739     2.929962     2.925185     2.920408     2.915631     2.910854     2.906077
      2.901300     2.896523     2.891747     2.886970     2.882193     2.877416     2.872639     2.867862     2.863085     2.858308
      2.853531     2.848754     2.843977     2.839200     2.834423     2.829646     2.824869     2.820092     2.815315     2.810538
      2.805761     2.800984     2.796207     2.791430     2.786654     2.781877     2.777100     2.772323     2.767546     2.762769
      2.757992     2.753215     2.748438     2.743661     2.738884     2.734107     2.729330     2.724553     2.719776     2.714999
      2.710222     2.705445     2.700668     2.695891     2.691114     2.686337     2.681561     2.676784     2.672007     2.667230
      2.662453     2.657676     2.652899     2.648122     2.643345     2.638568     2.633791     2.629014     2.624237     2.619460
      2.614683     2.609906     2.605129     2.600352     2.595575     2.590798     2.586021     2.581244     2.576468     2.571691
      2.566914     2.562137     2.557360     2.552583     2.547806     2.543029     2.538252     2.533475     2.528698     2.523921
      2.519144     2.514367     2.509590     2.504813     2.500036     2.495259     2.490482     2.485705     2.480928     2.476151
      2.471375     2.466598     2.461821     2.457044     2.452267     2.447490     2.442713     2.437936     2.433159     2.428382
      2.423605     2.418828     2.414051     2.409274     2.404497     2.399720     2.394943     2.390166     2.385389     2.380612
      2.375835     2.371058     2.366282     2.361505     2.356728     2.351951     2.347174     2.342397     2.337620     2.332843
      2.328066     2.323289     2.318512     2.313735     2.308958     2.304181     2.299404     2.294627     2.289850     2.285073
      2.280296     2.275519     2.270742     2.265965     2.261189     2.256412     2.251635     2.246858     2.242081     2.237304
      2.232527     2.227750     2.222973     2.218196     2.213419     2.208642     2.203865     2.199088     2.194311     2.189534
      2.184757     2.179980     2.175203     2.170426     2.165649     2.160872     2.156096     2.151319     2.146542     2.141765
      2.136988     2.132211     2.127434     2.122657     2.117880     2.113103     2.108326     2.103549     2.098772     2.093995
      2.089218     2.084441     2.079664     2.074887     2.070110     2.065333     2.060556     2.055779     2.051003     2.046226
      2.041449     2.036672     2.031895     2.027118     2.022341     2.017564     2.012787     2.008010     2.003233     1.998456
      1.993679     1.988902     1.984125     1.979348     1.974571     1.969794     1.965017     1.960240     1.955463     1.950686
      1.945910     1.941133     1.936356     1.931579     1.926802     1.922025     1.917248     1.912471     1.907694     1.902917
      1.898140     1.893363     1.888586     1.883809     1.879032     1.874255     1.869478     1.864701     1.859924     1.855147
      1.850370     1.845593     1.840816     1.836040     1.831263     1.826486     1.821709     1.816932     1.812155     1.807378
      1.802601     1.797824     1.793047     1.788270     1.783493     1.778716     1.773939     1.769162     1.764385     1.759608
      1.754831     1.750054     1.745277     1.740500     1.735723     1.730947     1.726170     1.721393     1.716616     1.711839
      1.707062     1.702285     1.697508     1.692731     1.687954     1.683177     1.678400     1.673623     1.668846     1.664069
      1.659292     1.654515     1.649738     1.644961     1.640184     1.635407     1.630630     1.625854     1.621077     1.616300
      1.611523     1.606746     1.601969     1.597192     1.592415     1.587638     1.582861     1.578084     1.573307     1.568530
      1.563753     1.558976     1.554199     1.549422     1.544645     1.539868     1.535091     1.530314     1.525537     1.520761
      1.515984     1.511207     1.506430     1.501653     1.496876     1.492099     1.487322     1.482545     1.477768     1.472991
      1.468214     1.463437     1.458660     1.453883     1.449106     1.444329     1.439552     1.434775     1.429998     1.425221
      1.420444     1.415668     1.410891     1.406114     1.401337     1.396560     1.391783     1.387006     1.382229     1.377452
      1.372675     1.367898     1.363121     1.358344     1.353567     1.348790     1.344013     1.339236     1.334459     1.329682
      1.324905     1.320128     1.315351     1.310575     1.305798     1.301021     1.296244     1.291467     1.286690     1.281913
      1.277136     1.272359     1.267582     1.262805     1.258028     1.253251     1.248474     1.243697     1.238920     1.234143
      1.229366     1.224589     1.219812     1.215035     1.210258     1.205482     1.200705     1.195928     1.191151     1.186374
      1.181597     1.176820     1.172043     1.167266     1.162489     1.157712     1.152935     1.148158     1.143381     1.138604
      1.133827     1.129050     1.124273     1.119496     1.114719     1.109942     1.105165     1.100389     1.095612     1.090835
      1.086058     1.081281     1.076504     1.071727     1.066950     1.062173     1.057396     1.052619     1.047842     1.043065
      1.038288     1.033511     1.028734     1.023957     1.019180     1.014403     1.009626     1.004849     1.000072     0.995296
      0.990519     0.985742     0.980965     0.976188     0.971411     0.966634     0.961857     0.957080     0.952303     0.947526
      0.942749     0.937972     0.933195     0.928418     0.923641     0.918864     0.914087     0.909310     0.904533     0.899756
      0.894979     0.890203     0.885426     0.880649     0.875872     0.871095     0.866318     0.861541     0.856764     0.851987
      0.847210     0.842433     0.837656     0.832879     0.828102     0.823325     0.818548     0.813771     0.808994     0.804217
      0.799440     0.794663     0.789886     0.785110     0.780333     0.775556     0.770779     0.766002     0.761225     0.756448
      0.751671     0.746894     0.742117     0.737340     0.732563     0.727786     0.723009     0.718232     0.713455     0.708678
      0.703901     0.699124     0.694347     0.689570     0.684793     0.680017     0.675240     0.670463     0.665686     0.660909
      0.656132     0.651355     0.646578     0.641801     0.637024     0.632247     0.627470     0.622693     0.617916     0.613139
      0.608362     0.603585     0.598808     0.594031     0.589254     0.584477     0.579700     0.574924     0.570147     0.565370
      0.560593     0.555816     0.551039     0.546262     0.541485     0.536708     0.531931     0.527154     0.522377     0.517600
      0.512823     0.508046     0.503269     0.498492
 NY phased data points follow
   3.51946E-01  3.75992E-01  4.60426E-01  4.11874E-01  4.20461E-01  4.61587E-01  5.01503E-01  4.86184E-01  4.83489E-01  4.94155E-01
   5.57695E-01  6.14240E-01  5.88152E-01  6.87560E-01  8.26066E-01  8.32901E-01  9.05315E-01  1.02018E+00  1.13775E+00  1.24784E+00
   1.36516E+00  1.47337E+00  1.59240E+00  1.69188E+00  1.66833E+00  1.68320E+00  1.66002E+00  1.58795E+00  1.53987E+00  1.43798E+00
   1.37773E+00  1.26226E+00  1.16332E+00  1.08793E+00  1.01979E+00  9.59598E-01  9.16061E-01  9.35927E-01  8.69885E-01  8.62466E-01
   9.11653E-01  8.56658E-01  9.06517E-01  9.33283E-01  8.46798E-01  9.52776E-01  9.63858E-01  1.01533E+00  1.00566E+00  1.04355E+00
   1.06438E+00  1.12197E+00  1.14456E+00  1.12415E+00  1.17542E+00  1.17722E+00  1.19869E+00  1.22985E+00  1.32353E+00  1.27994E+00
   1.33240E+00  1.29045E+00  1.20447E+00  1.16955E+00  1.14912E+00  1.17553E+00  1.10240E+00  1.14549E+00  1.09056E+00  1.07874E+00
   1.10752E+00  1.07037E+00  1.08993E+00  9.86729E-01  1.04873E+00  9.74211E-01  9.44205E-01  9.84320E-01  1.06851E+00  1.09154E+00
   1.10991E+00  1.17595E+00  1.18262E+00  1.16726E+00  1.15014E+00  1.12462E+00  1.06488E+00  9.92655E-01  8.89714E-01  8.87230E-01
   8.44303E-01  8.73923E-01  8.38307E-01  9.93737E-01  1.02353E+00  1.06018E+00  1.11913E+00  1.25369E+00  1.29683E+00  1.38291E+00
   1.37634E+00  1.38692E+00  1.36365E+00  1.31558E+00  1.23156E+00  1.16857E+00  9.85895E-01  9.73190E-01  8.50240E-01  7.58471E-01
   7.60747E-01  7.45330E-01  6.55478E-01  7.70175E-01  6.25801E-01  6.36416E-01  6.40059E-01  6.78710E-01  6.51356E-01  6.22331E-01
   6.28394E-01  5.98547E-01  6.45962E-01  5.80460E-01  6.00484E-01  5.80905E-01  6.03441E-01  6.09169E-01  5.57087E-01  5.25819E-01
   5.20522E-01  5.26949E-01  5.24226E-01  5.11010E-01  5.19407E-01  4.69268E-01  5.20561E-01  5.17549E-01  4.99302E-01  5.49213E-01
   5.31869E-01  5.76408E-01  4.63171E-01  5.03848E-01  4.99187E-01  5.05342E-01  5.30744E-01  5.07929E-01  5.03686E-01  4.48762E-01
   4.66332E-01  4.91138E-01  4.91275E-01  5.35107E-01  5.70884E-01  6.40479E-01  6.62442E-01  6.05792E-01  6.84858E-01  7.88902E-01
   7.00488E-01  7.96892E-01  9.09494E-01  9.10322E-01  1.02011E+00  1.04470E+00  1.12168E+00  1.21195E+00  1.29997E+00  1.42323E+00
   1.56183E+00  1.60873E+00  1.64376E+00  1.65527E+00  1.62169E+00  1.55730E+00  1.44293E+00  1.31136E+00  1.26740E+00  1.08835E+00
   9.31207E-01  9.20048E-01  7.61462E-01  7.81432E-01  6.66140E-01  6.33011E-01  5.84200E-01  6.29334E-01  5.36383E-01  5.61779E-01
   4.94810E-01  5.25014E-01  5.61262E-01  5.91796E-01  5.76554E-01  5.99881E-01  6.53544E-01  6.11413E-01  6.02160E-01  7.09746E-01
   7.89482E-01  8.36713E-01  1.05995E+00  1.15932E+00  1.49148E+00  1.55742E+00  1.86188E+00  2.13591E+00  2.35941E+00  2.59927E+00
   2.74528E+00  2.82816E+00  2.74365E+00  2.65953E+00  2.42076E+00  2.18529E+00  1.94963E+00  1.66562E+00  1.47334E+00  1.23394E+00
   1.16575E+00  1.04299E+00  9.26223E-01  8.34374E-01  7.67608E-01  6.86649E-01  6.25922E-01  6.12902E-01  6.06933E-01  5.77292E-01
   5.51541E-01  5.77126E-01  5.51353E-01  5.41448E-01  4.99608E-01  5.17093E-01  4.57456E-01  5.06872E-01  4.57574E-01  4.54502E-01
   4.03571E-01  3.92956E-01  3.61386E-01  3.64846E-01  3.31696E-01  3.24976E-01  3.32888E-01  3.73586E-01  2.82488E-01  3.01962E-01
   3.76785E-01  2.78391E-01  2.92596E-01  3.22190E-01  3.53422E-01  3.64486E-01  3.70899E-01  3.52932E-01  3.84693E-01  4.16282E-01
   3.88111E-01  3.98862E-01  4.12471E-01  4.56388E-01  4.33113E-01  4.60522E-01  4.26410E-01  3.92197E-01  4.14761E-01  4.35861E-01
   3.86922E-01  4.37749E-01  3.91454E-01  4.23912E-01  4.26542E-01  3.43525E-01  3.85175E-01  3.35954E-01  2.81532E-01  2.81741E-01
   2.56265E-01  2.36132E-01  2.23171E-01  2.63995E-01  2.96266E-01  3.19724E-01  3.62911E-01  4.48241E-01  3.82607E-01  4.39422E-01
   4.83255E-01  5.75734E-01  5.79083E-01  5.49875E-01  5.88935E-01  5.60384E-01  6.46407E-01  6.63135E-01  6.95939E-01  7.58310E-01
   7.09091E-01  7.09022E-01  6.95708E-01  7.11568E-01  6.04502E-01  6.70483E-01  6.49765E-01  5.08781E-01  4.75128E-01  4.48109E-01
   4.61391E-01  4.80099E-01  4.68126E-01  4.83344E-01  5.17739E-01  4.90932E-01  5.73071E-01  5.22959E-01  5.75050E-01  6.27950E-01
   6.75237E-01  6.16980E-01  6.81732E-01  7.79707E-01  7.90736E-01  7.83168E-01  8.08706E-01  8.69680E-01  8.38736E-01  8.55377E-01
   8.87106E-01  9.31645E-01  8.94277E-01  8.47105E-01  8.77188E-01  8.11615E-01  8.48056E-01  8.11842E-01  7.51709E-01  7.91366E-01
   7.56407E-01  7.53623E-01  8.05566E-01  8.45313E-01  8.66704E-01  9.37722E-01  1.05467E+00  1.11300E+00  1.20335E+00  1.24074E+00
   1.37205E+00  1.31846E+00  1.33482E+00  1.29619E+00  1.22558E+00  1.21695E+00  1.14279E+00  9.94196E-01  1.02586E+00  9.43500E-01
   9.32520E-01  9.11132E-01  1.04606E+00  9.62499E-01  1.03568E+00  1.11179E+00  1.11392E+00  1.10513E+00  1.14531E+00  1.10107E+00
   1.09920E+00  1.10964E+00  1.02744E+00  1.08539E+00  1.00294E+00  9.59251E-01  1.03146E+00  1.03636E+00  1.00123E+00  9.71136E-01
   9.55597E-01  9.58545E-01  9.79709E-01  9.91385E-01  1.01405E+00  1.03632E+00  1.01714E+00  1.09105E+00  1.02594E+00  1.06684E+00
   1.06466E+00  1.01164E+00  9.89569E-01  1.03792E+00  1.07750E+00  1.08478E+00  1.16054E+00  1.16531E+00  1.23311E+00  1.26157E+00
   1.30333E+00  1.37841E+00  1.43036E+00  1.44332E+00  1.47832E+00  1.43977E+00  1.54521E+00  1.52545E+00  1.61511E+00  1.68013E+00
   1.69293E+00  1.71388E+00  1.83977E+00  1.93396E+00  2.14387E+00  2.39720E+00  2.60719E+00  2.87872E+00  3.09335E+00  3.28494E+00
   3.59710E+00  3.85923E+00  4.04893E+00  4.12576E+00  4.10830E+00  3.98523E+00  3.72010E+00  3.37333E+00  2.97800E+00  2.52329E+00
   2.16920E+00  1.85529E+00  1.65108E+00  1.42887E+00  1.22175E+00  1.19681E+00  1.06181E+00  9.09652E-01  8.75678E-01  7.44711E-01
   6.20251E-01  6.02856E-01  5.44414E-01  4.87196E-01  5.14817E-01  4.38867E-01  4.56507E-01  4.29044E-01  3.93872E-01  3.48829E-01
   3.39214E-01  3.18840E-01  3.41131E-01  3.53280E-01  2.78758E-01  3.19645E-01  2.53895E-01  2.71024E-01  2.43226E-01  2.38583E-01
   2.04020E-01  1.94645E-01  2.34511E-01  2.21527E-01  2.11450E-01  2.01678E-01  2.67191E-01  2.04768E-01  2.31484E-01  2.49264E-01
   1.91683E-01  1.55665E-01  2.01780E-01  1.64409E-01  2.26989E-01  1.90099E-01  2.31723E-01  1.83152E-01  1.92684E-01  1.79949E-01
   1.43345E-01  2.01777E-01  1.73584E-01  1.84154E-01  1.77447E-01  1.50015E-01  2.05946E-01  1.49407E-01  1.43627E-01  1.92858E-01
   1.87305E-01  2.15646E-01  2.16365E-01  2.58931E-01  2.39222E-01  2.55933E-01  2.51642E-01  3.17928E-01  2.82097E-01  2.70648E-01
   3.17364E-01  2.88984E-01  2.76525E-01  2.98799E-01  2.86122E-01  3.57108E-01  3.42429E-01  3.63770E-01  3.64439E-01  3.89281E-01
   3.28086E-01  3.56094E-01  3.75664E-01  4.07307E-01  3.55977E-01  3.91088E-01  4.26880E-01  3.34828E-01  3.73203E-01  3.63839E-01
   3.39152E-01  3.69836E-01  3.94329E-01  3.07948E-01  3.11001E-01  3.46495E-01  3.31344E-01  2.77218E-01  3.24010E-01  2.98384E-01
   3.19476E-01  2.58657E-01  3.16381E-01  3.62034E-01  3.12508E-01  3.44929E-01  2.80005E-01  3.67210E-01  3.12471E-01  3.75312E-01
   2.79603E-01  2.73159E-01  4.21609E-01  3.53007E-01  3.59243E-01  3.29303E-01  3.86749E-01  4.07161E-01  3.88813E-01  3.41436E-01
   4.00270E-01  3.68813E-01  3.77808E-01  4.06194E-01  3.67935E-01  4.23663E-01  3.82700E-01  4.46406E-01  4.31681E-01  4.01386E-01
   3.80129E-01  4.08085E-01  3.96179E-01  4.15552E-01  3.24181E-01  3.54518E-01  3.66263E-01  2.91967E-01  2.86404E-01  2.84814E-01
   2.43658E-01  2.71369E-01  2.45334E-01  2.48236E-01  2.40194E-01  2.93205E-01  1.74824E-01  2.66858E-01  2.59940E-01  2.26304E-01
   2.41380E-01  2.46579E-01  2.18857E-01  1.74159E-01  2.66079E-01  2.14658E-01  2.19559E-01  2.29870E-01  2.40616E-01  2.43997E-01
   1.69486E-01  2.51831E-01  2.64998E-01  2.21726E-01  2.35505E-01  2.02498E-01  1.57160E-01  2.10608E-01  1.64252E-01  2.04917E-01
   1.84797E-01  1.59965E-01  1.26170E-01  1.70000E-01  1.52122E-01  1.24644E-01  1.13177E-01  1.34027E-01  1.08912E-01  1.22338E-01
   8.03807E-02  1.06965E-01  7.00219E-02  6.93888E-02  1.20743E-01  6.92801E-02  1.14896E-01  8.82403E-02  6.55812E-02  7.17737E-02
   9.51264E-02  9.41203E-02  1.09474E-01  1.08211E-01  1.13575E-01  1.69630E-01  1.58276E-01  1.32778E-01  1.21848E-01  1.70489E-01
   1.11553E-01  2.42639E-01  1.97239E-01  2.44722E-01  1.81384E-01  2.05065E-01  2.79689E-01  2.90710E-01  3.03597E-01  3.33851E-01
   3.57227E-01  3.65675E-01  3.95800E-01  3.80187E-01  3.99961E-01  4.15475E-01  4.10743E-01  4.68657E-01  4.94412E-01  5.36214E-01
   4.68771E-01  5.23722E-01  4.91716E-01  4.64481E-01  4.96208E-01  5.00587E-01  5.45981E-01  4.84156E-01  5.06349E-01  4.97594E-01
   5.21855E-01  4.36752E-01  4.48313E-01  4.77129E-01  4.63016E-01  4.43314E-01  3.81532E-01  4.19195E-01  3.83912E-01  3.29847E-01
   3.15266E-01  3.13077E-01  3.59584E-01  2.21205E-01  2.66473E-01  2.12980E-01  2.12101E-01  1.99100E-01  1.34528E-01  2.21562E-01
   2.17366E-01  1.46053E-01  7.33111E-02  1.40446E-01  8.45202E-02  8.11779E-02  8.12599E-02  3.34559E-02  8.18025E-02  1.15221E-01
   3.88792E-02  5.58355E-02  4.14278E-02  9.50384E-02  5.25561E-02  6.87648E-02  3.21293E-02  3.81413E-02  1.04291E-03  4.95351E-02
   2.16953E-04 -3.29735E-02  3.10795E-03 -1.62882E-02  9.16174E-03 -1.20801E-02 -4.56302E-02  1.18174E-02  5.42432E-04 -1.29573E-02
   9.45190E-03  7.21943E-03 -1.88638E-02  7.90589E-03 -1.36974E-02 -1.52175E-02  1.25444E-02 -6.70564E-02 -3.10516E-02  1.08991E-03
  -3.88045E-02  4.30698E-02  5.32793E-02  5.27974E-03 -1.51754E-02 -2.90174E-02 -1.80321E-02 -1.35839E-02  1.68599E-02  1.93172E-03
   1.81424E-02 -1.94774E-02  9.20198E-03 -8.39280E-03
 NY points of the fit to the data follow
   4.78642E-01  4.72113E-01  4.64124E-01  4.57452E-01  4.48696E-01  4.57326E-01  4.65719E-01  4.74283E-01  4.89900E-01  5.12871E-01
   5.41195E-01  5.56386E-01  5.96999E-01  6.76088E-01  7.46446E-01  8.56555E-01  9.13675E-01  9.89263E-01  1.12816E+00  1.25682E+00
   1.38297E+00  1.49279E+00  1.58197E+00  1.65344E+00  1.69961E+00  1.71125E+00  1.68438E+00  1.62032E+00  1.54879E+00  1.45709E+00
   1.37874E+00  1.25559E+00  1.16604E+00  1.10796E+00  1.02710E+00  9.53634E-01  8.99184E-01  8.55995E-01  8.36661E-01  8.31573E-01
   8.25634E-01  8.30310E-01  8.48623E-01  8.67799E-01  8.88170E-01  9.10778E-01  9.42566E-01  9.72986E-01  1.00269E+00  1.02709E+00
   1.05942E+00  1.09390E+00  1.13512E+00  1.17727E+00  1.20543E+00  1.23917E+00  1.26130E+00  1.27972E+00  1.29542E+00  1.29539E+00
   1.28221E+00  1.26429E+00  1.23901E+00  1.21162E+00  1.17633E+00  1.14329E+00  1.11689E+00  1.09522E+00  1.07579E+00  1.05578E+00
   1.04494E+00  1.02755E+00  1.01380E+00  1.00978E+00  1.00950E+00  1.01758E+00  1.02960E+00  1.04967E+00  1.08052E+00  1.11468E+00
   1.14574E+00  1.17182E+00  1.18066E+00  1.16915E+00  1.13703E+00  1.08688E+00  1.02280E+00  9.55568E-01  9.04460E-01  8.69994E-01
   8.56196E-01  8.67322E-01  8.87004E-01  9.33997E-01  1.00309E+00  1.07684E+00  1.15477E+00  1.22079E+00  1.28042E+00  1.31549E+00
   1.33398E+00  1.32867E+00  1.29516E+00  1.24322E+00  1.17877E+00  1.11238E+00  1.04352E+00  9.72253E-01  9.15154E-01  8.66706E-01
   8.22748E-01  7.91128E-01  7.69552E-01  7.52933E-01  7.39308E-01  7.33031E-01  7.23070E-01  7.09793E-01  6.93632E-01  6.77565E-01
   6.60365E-01  6.41798E-01  6.22202E-01  6.00937E-01  5.82247E-01  5.67236E-01  5.50845E-01  5.38170E-01  5.26620E-01  5.18227E-01
   5.10452E-01  5.04665E-01  5.00662E-01  4.96438E-01  4.95786E-01  4.98421E-01  5.04185E-01  5.12859E-01  5.19015E-01  5.25761E-01
   5.29611E-01  5.30490E-01  5.34042E-01  5.32785E-01  5.27355E-01  5.19342E-01  5.07804E-01  4.95986E-01  4.84262E-01  4.74028E-01
   4.67083E-01  4.72001E-01  4.86336E-01  5.10340E-01  5.45416E-01  5.72398E-01  6.13272E-01  6.56075E-01  6.99407E-01  7.42412E-01
   7.78588E-01  8.15598E-01  8.51481E-01  9.09359E-01  9.75652E-01  1.05037E+00  1.12738E+00  1.20309E+00  1.30684E+00  1.42339E+00
   1.52769E+00  1.61630E+00  1.66773E+00  1.68208E+00  1.64162E+00  1.55928E+00  1.44853E+00  1.31661E+00  1.18631E+00  1.06546E+00
   9.66859E-01  8.81830E-01  8.09132E-01  7.61015E-01  7.16889E-01  6.68162E-01  6.20970E-01  5.85570E-01  5.62546E-01  5.44891E-01
   5.37453E-01  5.36419E-01  5.37702E-01  5.42726E-01  5.53022E-01  5.68321E-01  5.93041E-01  6.27911E-01  6.72239E-01  7.18401E-01
   7.82948E-01  9.15555E-01  1.06194E+00  1.22209E+00  1.44503E+00  1.60526E+00  1.86934E+00  2.14544E+00  2.35922E+00  2.57531E+00
   2.71288E+00  2.79020E+00  2.76048E+00  2.63550E+00  2.44802E+00  2.19816E+00  1.93401E+00  1.68413E+00  1.46203E+00  1.28659E+00
   1.09881E+00  1.01846E+00  9.33128E-01  8.20583E-01  7.51719E-01  6.94835E-01  6.46282E-01  6.09088E-01  5.84021E-01  5.68355E-01
   5.53269E-01  5.42936E-01  5.31105E-01  5.17534E-01  5.02738E-01  4.83004E-01  4.66118E-01  4.46195E-01  4.28511E-01  4.14121E-01
   4.01236E-01  3.91847E-01  3.81341E-01  3.72800E-01  3.65033E-01  3.53381E-01  3.44167E-01  3.33994E-01  3.23890E-01  3.18861E-01
   3.16132E-01  3.17395E-01  3.19754E-01  3.24576E-01  3.34067E-01  3.48547E-01  3.60862E-01  3.75568E-01  3.92370E-01  4.02739E-01
   4.24234E-01  4.38717E-01  4.52469E-01  4.64827E-01  4.66062E-01  4.72920E-01  4.59224E-01  4.53332E-01  4.58290E-01  4.56760E-01
   4.63612E-01  4.64512E-01  4.62428E-01  4.49726E-01  4.19455E-01  3.91160E-01  3.50535E-01  3.06207E-01  2.71051E-01  2.46048E-01
   2.37563E-01  2.32677E-01  2.46912E-01  2.64260E-01  2.82859E-01  3.06291E-01  3.38046E-01  3.72833E-01  4.12611E-01  4.56320E-01
   4.91962E-01  5.28000E-01  5.44933E-01  5.60919E-01  5.82038E-01  6.00011E-01  6.19538E-01  6.39961E-01  6.56686E-01  6.72260E-01
   6.77374E-01  6.73139E-01  6.60050E-01  6.39673E-01  6.12188E-01  5.84407E-01  5.59988E-01  5.26757E-01  5.06544E-01  4.91424E-01
   4.77482E-01  4.72366E-01  4.64928E-01  4.69473E-01  4.87508E-01  5.03181E-01  5.23899E-01  5.40870E-01  5.67266E-01  5.99934E-01
   6.34728E-01  6.72959E-01  7.08299E-01  7.50429E-01  7.88586E-01  8.20111E-01  8.50819E-01  8.61192E-01  8.75561E-01  8.98532E-01
   9.05836E-01  9.13945E-01  9.11358E-01  9.11904E-01  9.13923E-01  8.99195E-01  8.71058E-01  8.48311E-01  8.23799E-01  8.03215E-01
   7.94928E-01  7.92579E-01  8.00168E-01  8.26383E-01  8.72183E-01  9.30302E-01  1.00808E+00  1.07800E+00  1.16646E+00  1.26549E+00
   1.33637E+00  1.37591E+00  1.38589E+00  1.35940E+00  1.29811E+00  1.21321E+00  1.12645E+00  1.04745E+00  9.72884E-01  9.30770E-01
   9.17366E-01  9.32585E-01  9.54864E-01  9.96725E-01  1.04662E+00  1.07716E+00  1.09560E+00  1.10259E+00  1.09292E+00  1.07378E+00
   1.04614E+00  1.01766E+00  9.93747E-01  9.72556E-01  9.62254E-01  9.54317E-01  9.53403E-01  9.55547E-01  9.56148E-01  9.58698E-01
   9.61047E-01  9.67419E-01  9.79379E-01  9.92360E-01  1.00694E+00  1.02555E+00  1.04164E+00  1.06039E+00  1.08222E+00  1.09318E+00
   1.10764E+00  1.11815E+00  1.12625E+00  1.13643E+00  1.14393E+00  1.15774E+00  1.17974E+00  1.21055E+00  1.24261E+00  1.27487E+00
   1.31075E+00  1.34379E+00  1.37665E+00  1.40660E+00  1.42526E+00  1.44133E+00  1.46391E+00  1.49792E+00  1.54552E+00  1.59929E+00
   1.67100E+00  1.75328E+00  1.86131E+00  1.96846E+00  2.14157E+00  2.39456E+00  2.60138E+00  2.88426E+00  3.08481E+00  3.28946E+00
   3.61269E+00  3.85632E+00  4.04456E+00  4.12881E+00  4.11129E+00  3.98581E+00  3.70963E+00  3.36123E+00  2.95936E+00  2.54263E+00
   2.17774E+00  1.85923E+00  1.64880E+00  1.42199E+00  1.26233E+00  1.19034E+00  1.04859E+00  9.01937E-01  7.89805E-01  7.05566E-01
   6.43570E-01  5.96356E-01  5.58007E-01  5.29146E-01  5.04588E-01  4.81997E-01  4.60879E-01  4.41517E-01  4.22380E-01  4.03449E-01
   3.84991E-01  3.65389E-01  3.46201E-01  3.28604E-01  3.10477E-01  2.94383E-01  2.79937E-01  2.67360E-01  2.56613E-01  2.47130E-01
   2.40421E-01  2.34812E-01  2.29912E-01  2.25049E-01  2.20037E-01  2.15186E-01  2.09326E-01  2.04123E-01  1.98255E-01  1.92196E-01
   1.87214E-01  1.82427E-01  1.78743E-01  1.75839E-01  1.73283E-01  1.71681E-01  1.70041E-01  1.68477E-01  1.67233E-01  1.66341E-01
   1.66279E-01  1.66645E-01  1.68000E-01  1.69928E-01  1.73137E-01  1.77302E-01  1.81974E-01  1.87669E-01  1.94131E-01  2.01156E-01
   2.08711E-01  2.16717E-01  2.25111E-01  2.33895E-01  2.42997E-01  2.52504E-01  2.62125E-01  2.71946E-01  2.81943E-01  2.91831E-01
   3.01492E-01  3.10845E-01  3.19811E-01  3.28262E-01  3.36089E-01  3.43196E-01  3.49496E-01  3.54918E-01  3.59406E-01  3.62921E-01
   3.65444E-01  3.66979E-01  3.67544E-01  3.67183E-01  3.65956E-01  3.63937E-01  3.61220E-01  3.57912E-01  3.54132E-01  3.50009E-01
   3.45672E-01  3.41257E-01  3.36897E-01  3.32722E-01  3.28850E-01  3.25394E-01  3.22453E-01  3.20109E-01  3.18431E-01  3.17468E-01
   3.17251E-01  3.17791E-01  3.19083E-01  3.21103E-01  3.23810E-01  3.27146E-01  3.31042E-01  3.35416E-01  3.40174E-01  3.45216E-01
   3.50434E-01  3.55719E-01  3.60961E-01  3.66052E-01  3.70887E-01  3.75364E-01  3.79393E-01  3.82890E-01  3.85783E-01  3.88014E-01
