 LCModel (Version 6.3-0D) Copyright: S.W. Provencher.          Ref.: Magn. Reson. Med. 30:672-679 (1993).                
 S05_PRESS_35
 Data of: Dept of Radiology, The Johns Hopkins University School of Medicine
 17-March-2020  16:33
 32 lines in following concentration table = NCONC+1
    Conc.  %SD /Cr+PCr  Metabolite                                         
    1.017  64%   0.508 Asc                                                 
    6.674  18%   3.335 Asp                                                 
    8.635   6%   4.316 Cr                                                  
    4.061  17%   2.030 GABA                                                
    0.000 999%   0.000 GPC                                                 
    2.501  11%   1.250 GSH                                                 
    4.347  22%   2.173 Gln                                                 
   24.575   5%  12.281 Glu                                                 
   15.646   4%   7.819 Ins                                                 
    1.817  26%   0.908 Lac                                                 
   22.198   3%  11.093 NAA                                                 
    1.867  24%   0.933 NAAG                                                
    2.998   3%   1.498 PCh                                                 
    7.373   7%   3.684 PCr                                                 
    0.000 999%   0.000 PE                                                  
    0.368  29%   0.184 Scyllo                                              
    3.201  24%   1.600 Tau                                                 
    0.000 999%   0.000 -CrCH2                                              
    2.998   3%   1.498 PCh+GPC                                             
   16.008   2%   8.000 Cr+PCr                                              
   24.064   2%  12.026 NAA+NAAG                                            
   28.922   5%  14.454 Glu+Gln                                             
    0.000 999%   0.000 Lip13a                                              
    0.000 999%   0.000 Lip13b                                              
    0.000 999%   0.000 Lip09                                               
   14.747  14%   7.370 MM09                                                
 4.69E-02 999% 2.3E-02 Lip20                                               
   18.112  20%   9.052 MM20                                                
    6.159  24%   3.078 MM12                                                
   12.958  26%   6.476 MM14                                                
   19.467  17%   9.729 MM17                                                
   6 lines in following misc. output table
  FWHM = 0.033 ppm    S/N =  37                                            
  Data shift = 0.005 ppm                                                   
  Ph:   3 deg       1.0 deg/ppm                                            
  alphaB,S = 3.4E-02,   4.0E-01                                            
   26 spline knots.   Ns = 7(1)                                            
   2 inflections.     1 extrema                                            
  734 points on ppm-axis = NY
      4.000000     3.995223     3.990446     3.985669     3.980892     3.976115     3.971338     3.966561     3.961784     3.957007
      3.952230     3.947453     3.942677     3.937900     3.933123     3.928346     3.923569     3.918792     3.914015     3.909238
      3.904461     3.899684     3.894907     3.890130     3.885353     3.880576     3.875799     3.871022     3.866245     3.861468
      3.856691     3.851914     3.847137     3.842360     3.837584     3.832807     3.828030     3.823253     3.818476     3.813699
      3.808922     3.804145     3.799368     3.794591     3.789814     3.785037     3.780260     3.775483     3.770706     3.765929
      3.761152     3.756375     3.751598     3.746821     3.742044     3.737267     3.732491     3.727714     3.722937     3.718160
      3.713383     3.708606     3.703829     3.699052     3.694275     3.689498     3.684721     3.679944     3.675167     3.670390
      3.665613     3.660836     3.656059     3.651282     3.646505     3.641728     3.636951     3.632174     3.627398     3.622621
      3.617844     3.613067     3.608290     3.603513     3.598736     3.593959     3.589182     3.584405     3.579628     3.574851
      3.570074     3.565297     3.560520     3.555743     3.550966     3.546189     3.541412     3.536635     3.531858     3.527081
      3.522305     3.517528     3.512751     3.507974     3.503197     3.498420     3.493643     3.488866     3.484089     3.479312
      3.474535     3.469758     3.464981     3.460204     3.455427     3.450650     3.445873     3.441096     3.436319     3.431542
      3.426765     3.421988     3.417212     3.412435     3.407658     3.402881     3.398104     3.393327     3.388550     3.383773
      3.378996     3.374219     3.369442     3.364665     3.359888     3.355111     3.350334     3.345557     3.340780     3.336003
      3.331226     3.326449     3.321672     3.316895     3.312119     3.307342     3.302565     3.297788     3.293011     3.288234
      3.283457     3.278680     3.273903     3.269126     3.264349     3.259572     3.254795     3.250018     3.245241     3.240464
      3.235687     3.230910     3.226133     3.221356     3.216579     3.211802     3.207026     3.202249     3.197472     3.192695
      3.187918     3.183141     3.178364     3.173587     3.168810     3.164033     3.159256     3.154479     3.149702     3.144925
      3.140148     3.135371     3.130594     3.125817     3.121040     3.116263     3.111486     3.106709     3.101933     3.097156
      3.092379     3.087602     3.082825     3.078048     3.073271     3.068494     3.063717     3.058940     3.054163     3.049386
      3.044609     3.039832     3.035055     3.030278     3.025501     3.020724     3.015947     3.011170     3.006393     3.001616
      2.996840     2.992063     2.987286     2.982509     2.977732     2.972955     2.968178     2.963401     2.958624     2.953847
      2.949070     2.944293     2.939516     2.934739     2.929962     2.925185     2.920408     2.915631     2.910854     2.906077
      2.901300     2.896523     2.891747     2.886970     2.882193     2.877416     2.872639     2.867862     2.863085     2.858308
      2.853531     2.848754     2.843977     2.839200     2.834423     2.829646     2.824869     2.820092     2.815315     2.810538
      2.805761     2.800984     2.796207     2.791430     2.786654     2.781877     2.777100     2.772323     2.767546     2.762769
      2.757992     2.753215     2.748438     2.743661     2.738884     2.734107     2.729330     2.724553     2.719776     2.714999
      2.710222     2.705445     2.700668     2.695891     2.691114     2.686337     2.681561     2.676784     2.672007     2.667230
      2.662453     2.657676     2.652899     2.648122     2.643345     2.638568     2.633791     2.629014     2.624237     2.619460
      2.614683     2.609906     2.605129     2.600352     2.595575     2.590798     2.586021     2.581244     2.576468     2.571691
      2.566914     2.562137     2.557360     2.552583     2.547806     2.543029     2.538252     2.533475     2.528698     2.523921
      2.519144     2.514367     2.509590     2.504813     2.500036     2.495259     2.490482     2.485705     2.480928     2.476151
      2.471375     2.466598     2.461821     2.457044     2.452267     2.447490     2.442713     2.437936     2.433159     2.428382
      2.423605     2.418828     2.414051     2.409274     2.404497     2.399720     2.394943     2.390166     2.385389     2.380612
      2.375835     2.371058     2.366282     2.361505     2.356728     2.351951     2.347174     2.342397     2.337620     2.332843
      2.328066     2.323289     2.318512     2.313735     2.308958     2.304181     2.299404     2.294627     2.289850     2.285073
      2.280296     2.275519     2.270742     2.265965     2.261189     2.256412     2.251635     2.246858     2.242081     2.237304
      2.232527     2.227750     2.222973     2.218196     2.213419     2.208642     2.203865     2.199088     2.194311     2.189534
      2.184757     2.179980     2.175203     2.170426     2.165649     2.160872     2.156096     2.151319     2.146542     2.141765
      2.136988     2.132211     2.127434     2.122657     2.117880     2.113103     2.108326     2.103549     2.098772     2.093995
      2.089218     2.084441     2.079664     2.074887     2.070110     2.065333     2.060556     2.055779     2.051003     2.046226
      2.041449     2.036672     2.031895     2.027118     2.022341     2.017564     2.012787     2.008010     2.003233     1.998456
      1.993679     1.988902     1.984125     1.979348     1.974571     1.969794     1.965017     1.960240     1.955463     1.950686
      1.945910     1.941133     1.936356     1.931579     1.926802     1.922025     1.917248     1.912471     1.907694     1.902917
      1.898140     1.893363     1.888586     1.883809     1.879032     1.874255     1.869478     1.864701     1.859924     1.855147
      1.850370     1.845593     1.840816     1.836040     1.831263     1.826486     1.821709     1.816932     1.812155     1.807378
      1.802601     1.797824     1.793047     1.788270     1.783493     1.778716     1.773939     1.769162     1.764385     1.759608
      1.754831     1.750054     1.745277     1.740500     1.735723     1.730947     1.726170     1.721393     1.716616     1.711839
      1.707062     1.702285     1.697508     1.692731     1.687954     1.683177     1.678400     1.673623     1.668846     1.664069
      1.659292     1.654515     1.649738     1.644961     1.640184     1.635407     1.630630     1.625854     1.621077     1.616300
      1.611523     1.606746     1.601969     1.597192     1.592415     1.587638     1.582861     1.578084     1.573307     1.568530
      1.563753     1.558976     1.554199     1.549422     1.544645     1.539868     1.535091     1.530314     1.525537     1.520761
      1.515984     1.511207     1.506430     1.501653     1.496876     1.492099     1.487322     1.482545     1.477768     1.472991
      1.468214     1.463437     1.458660     1.453883     1.449106     1.444329     1.439552     1.434775     1.429998     1.425221
      1.420444     1.415668     1.410891     1.406114     1.401337     1.396560     1.391783     1.387006     1.382229     1.377452
      1.372675     1.367898     1.363121     1.358344     1.353567     1.348790     1.344013     1.339236     1.334459     1.329682
      1.324905     1.320128     1.315351     1.310575     1.305798     1.301021     1.296244     1.291467     1.286690     1.281913
      1.277136     1.272359     1.267582     1.262805     1.258028     1.253251     1.248474     1.243697     1.238920     1.234143
      1.229366     1.224589     1.219812     1.215035     1.210258     1.205482     1.200705     1.195928     1.191151     1.186374
      1.181597     1.176820     1.172043     1.167266     1.162489     1.157712     1.152935     1.148158     1.143381     1.138604
      1.133827     1.129050     1.124273     1.119496     1.114719     1.109942     1.105165     1.100389     1.095612     1.090835
      1.086058     1.081281     1.076504     1.071727     1.066950     1.062173     1.057396     1.052619     1.047842     1.043065
      1.038288     1.033511     1.028734     1.023957     1.019180     1.014403     1.009626     1.004849     1.000072     0.995296
      0.990519     0.985742     0.980965     0.976188     0.971411     0.966634     0.961857     0.957080     0.952303     0.947526
      0.942749     0.937972     0.933195     0.928418     0.923641     0.918864     0.914087     0.909310     0.904533     0.899756
      0.894979     0.890203     0.885426     0.880649     0.875872     0.871095     0.866318     0.861541     0.856764     0.851987
      0.847210     0.842433     0.837656     0.832879     0.828102     0.823325     0.818548     0.813771     0.808994     0.804217
      0.799440     0.794663     0.789886     0.785110     0.780333     0.775556     0.770779     0.766002     0.761225     0.756448
      0.751671     0.746894     0.742117     0.737340     0.732563     0.727786     0.723009     0.718232     0.713455     0.708678
      0.703901     0.699124     0.694347     0.689570     0.684793     0.680017     0.675240     0.670463     0.665686     0.660909
      0.656132     0.651355     0.646578     0.641801     0.637024     0.632247     0.627470     0.622693     0.617916     0.613139
      0.608362     0.603585     0.598808     0.594031     0.589254     0.584477     0.579700     0.574924     0.570147     0.565370
      0.560593     0.555816     0.551039     0.546262     0.541485     0.536708     0.531931     0.527154     0.522377     0.517600
      0.512823     0.508046     0.503269     0.498492
 NY phased data points follow
   1.47637E-01  1.82342E-01  1.19407E-01  2.07315E-01  1.94863E-01  1.96112E-01  2.20068E-01  2.35835E-01  2.50119E-01  3.25134E-01
   3.18732E-01  3.33735E-01  4.09487E-01  4.32900E-01  4.83876E-01  4.97350E-01  5.79379E-01  7.55818E-01  8.64936E-01  9.92460E-01
   1.08856E+00  1.09015E+00  1.21617E+00  1.28592E+00  1.33977E+00  1.29798E+00  1.30025E+00  1.14210E+00  1.05558E+00  1.04146E+00
   9.22444E-01  8.78490E-01  8.05760E-01  7.60721E-01  6.68847E-01  6.85215E-01  5.80834E-01  5.45009E-01  6.37544E-01  5.95889E-01
   5.92978E-01  6.23344E-01  6.63957E-01  6.76235E-01  6.84848E-01  6.72848E-01  7.81094E-01  8.21161E-01  8.48485E-01  7.92359E-01
   8.41208E-01  8.59949E-01  9.16443E-01  9.86786E-01  1.04776E+00  1.10569E+00  1.16376E+00  1.16420E+00  1.19146E+00  1.11028E+00
   1.09340E+00  1.03247E+00  1.05118E+00  9.68882E-01  9.30915E-01  9.92173E-01  9.98857E-01  1.04908E+00  9.73150E-01  9.81836E-01
   9.34401E-01  8.84540E-01  8.12529E-01  8.18841E-01  7.39631E-01  8.18662E-01  7.90477E-01  8.43489E-01  8.70241E-01  9.46869E-01
   1.09709E+00  1.17360E+00  1.21974E+00  1.21979E+00  1.11919E+00  1.02725E+00  9.45122E-01  8.09117E-01  7.55087E-01  6.97432E-01
   6.29803E-01  6.40451E-01  6.11524E-01  7.49529E-01  9.07585E-01  1.07062E+00  1.24347E+00  1.30860E+00  1.47507E+00  1.53224E+00
   1.53266E+00  1.53110E+00  1.44504E+00  1.33841E+00  1.21823E+00  1.08156E+00  9.84386E-01  8.48704E-01  7.88742E-01  7.05492E-01
   6.98880E-01  6.91672E-01  6.46977E-01  6.15108E-01  6.63405E-01  6.26110E-01  6.94219E-01  6.70874E-01  6.02674E-01  6.12985E-01
   6.25143E-01  6.06407E-01  6.49999E-01  5.75945E-01  5.83905E-01  5.49967E-01  5.42596E-01  5.49238E-01  5.34088E-01  5.15745E-01
   4.77690E-01  4.11504E-01  4.70260E-01  4.42293E-01  4.24708E-01  4.82813E-01  4.08870E-01  4.34253E-01  4.23978E-01  4.72396E-01
   5.21643E-01  4.66882E-01  5.67684E-01  4.91880E-01  5.30638E-01  4.77884E-01  4.34278E-01  4.03698E-01  3.75442E-01  3.11053E-01
   3.11025E-01  3.30705E-01  3.88456E-01  3.80343E-01  4.67269E-01  4.90587E-01  5.28092E-01  6.31441E-01  7.02053E-01  7.05602E-01
   7.15942E-01  8.17090E-01  7.95630E-01  9.05352E-01  8.58589E-01  8.51887E-01  9.21970E-01  9.88076E-01  1.21686E+00  1.41891E+00
   1.59003E+00  1.80703E+00  1.84698E+00  1.75575E+00  1.65587E+00  1.51946E+00  1.31967E+00  1.25687E+00  1.03333E+00  8.92291E-01
   8.41085E-01  7.22039E-01  6.08274E-01  6.13256E-01  5.47596E-01  5.30263E-01  4.68250E-01  5.31329E-01  4.74407E-01  4.69505E-01
   3.48635E-01  4.26030E-01  4.76897E-01  4.43806E-01  4.64024E-01  4.77531E-01  4.27769E-01  5.57931E-01  4.96056E-01  5.24209E-01
   6.07823E-01  6.55724E-01  7.56532E-01  8.09919E-01  1.03747E+00  1.30691E+00  1.72048E+00  2.13472E+00  2.59835E+00  2.94593E+00
   3.05683E+00  2.99341E+00  2.79612E+00  2.51302E+00  2.26125E+00  1.95071E+00  1.57825E+00  1.38800E+00  1.25156E+00  1.00509E+00
   8.76047E-01  8.11247E-01  7.38669E-01  6.39515E-01  6.81913E-01  5.74371E-01  5.66118E-01  5.26017E-01  4.84520E-01  5.21755E-01
   5.46981E-01  4.69071E-01  5.62242E-01  5.21937E-01  5.54334E-01  4.70345E-01  4.37334E-01  4.69777E-01  4.00267E-01  4.28454E-01
   4.47091E-01  3.88095E-01  3.66950E-01  3.03238E-01  3.04213E-01  3.12477E-01  3.17453E-01  3.13788E-01  2.80292E-01  2.32256E-01
   3.10801E-01  2.78506E-01  2.91552E-01  2.47991E-01  2.79464E-01  3.24912E-01  3.03438E-01  3.46303E-01  3.75515E-01  3.82950E-01
   3.66009E-01  4.39272E-01  5.53831E-01  4.56427E-01  4.23736E-01  4.06836E-01  4.02524E-01  4.07212E-01  4.19326E-01  4.65867E-01
   4.94889E-01  4.55327E-01  4.83296E-01  4.27318E-01  3.95725E-01  3.87128E-01  3.01207E-01  2.64684E-01  2.00374E-01  2.75375E-01
   1.98210E-01  3.06631E-01  2.75113E-01  2.07800E-01  1.56870E-01  2.51631E-01  2.94106E-01  3.97714E-01  4.21302E-01  4.50642E-01
   4.89789E-01  4.77909E-01  5.33589E-01  5.03001E-01  4.99225E-01  5.35076E-01  6.05734E-01  5.91469E-01  6.47281E-01  6.51454E-01
   6.67621E-01  6.66040E-01  6.70915E-01  6.75364E-01  6.47115E-01  6.06899E-01  5.33849E-01  5.38679E-01  4.24154E-01  3.75160E-01
   3.92374E-01  3.27275E-01  3.82830E-01  4.21866E-01  4.23773E-01  3.84355E-01  4.72239E-01  5.47345E-01  4.77863E-01  5.15504E-01
   6.05175E-01  6.18196E-01  6.19556E-01  5.99335E-01  5.79046E-01  6.71002E-01  6.40111E-01  6.82702E-01  7.78923E-01  7.17177E-01
   8.29866E-01  8.20516E-01  8.86247E-01  8.22799E-01  8.24952E-01  8.27556E-01  7.99938E-01  7.27158E-01  7.24201E-01  7.42389E-01
   7.15303E-01  7.50235E-01  6.34242E-01  7.14275E-01  6.99038E-01  8.37172E-01  9.20125E-01  1.05448E+00  1.20420E+00  1.30238E+00
   1.40877E+00  1.46109E+00  1.45314E+00  1.33500E+00  1.24562E+00  1.13165E+00  9.60003E-01  8.87329E-01  8.67809E-01  7.80982E-01
   8.51577E-01  8.78957E-01  9.40308E-01  1.02253E+00  1.12511E+00  1.12589E+00  1.18453E+00  1.13571E+00  1.12637E+00  1.02798E+00
   1.10561E+00  1.07003E+00  1.03289E+00  9.79635E-01  9.49287E-01  9.64652E-01  9.72484E-01  9.54995E-01  8.97291E-01  8.93391E-01
   9.13450E-01  8.43645E-01  8.58919E-01  9.48951E-01  8.30838E-01  8.58701E-01  8.89379E-01  9.71299E-01  8.87649E-01  9.92574E-01
   8.95023E-01  9.98177E-01  8.80178E-01  8.94660E-01  9.56535E-01  9.17408E-01  9.08465E-01  1.01316E+00  9.95797E-01  1.10283E+00
   1.17856E+00  1.22162E+00  1.19233E+00  1.32045E+00  1.26298E+00  1.32644E+00  1.28331E+00  1.30333E+00  1.32578E+00  1.33562E+00
   1.42755E+00  1.46556E+00  1.57544E+00  1.68232E+00  1.86661E+00  1.96855E+00  2.08082E+00  2.21099E+00  2.40214E+00  2.83489E+00
   3.44587E+00  4.21297E+00  4.69011E+00  4.88471E+00  4.65545E+00  4.25494E+00  3.77546E+00  3.22107E+00  2.67840E+00  2.25749E+00
   1.87004E+00  1.58512E+00  1.33904E+00  1.16019E+00  1.09051E+00  9.40605E-01  8.76165E-01  8.44677E-01  7.91843E-01  7.26665E-01
   6.66780E-01  5.88126E-01  6.13869E-01  5.89696E-01  5.62848E-01  6.13200E-01  5.89782E-01  5.71166E-01  6.38696E-01  6.55606E-01
   6.01442E-01  6.02562E-01  5.83820E-01  6.09433E-01  6.07803E-01  5.46484E-01  5.60758E-01  5.50014E-01  5.41691E-01  5.76695E-01
   6.01368E-01  6.37787E-01  6.08473E-01  6.00884E-01  6.20264E-01  7.03885E-01  6.92677E-01  6.89733E-01  6.41284E-01  6.61891E-01
   6.96670E-01  6.89464E-01  6.58086E-01  6.89142E-01  7.40584E-01  7.68000E-01  7.09555E-01  7.41526E-01  7.09587E-01  8.49394E-01
   8.16441E-01  8.64943E-01  8.46758E-01  8.58088E-01  8.40921E-01  8.18770E-01  9.34075E-01  8.84308E-01  8.51214E-01  8.47645E-01
   8.13735E-01  8.74695E-01  8.29154E-01  8.26492E-01  7.36892E-01  8.78178E-01  8.04405E-01  8.21119E-01  7.74403E-01  8.27366E-01
   8.00156E-01  8.08239E-01  8.28143E-01  7.64623E-01  7.27786E-01  8.18953E-01  7.76752E-01  7.32103E-01  6.84729E-01  6.27585E-01
   6.08849E-01  6.37266E-01  6.10433E-01  5.74522E-01  6.07475E-01  5.74755E-01  5.43414E-01  4.92695E-01  5.62636E-01  5.43624E-01
   5.07771E-01  4.50952E-01  5.62133E-01  5.54398E-01  5.90764E-01  5.13462E-01  5.20721E-01  5.51060E-01  5.67698E-01  5.55615E-01
   4.68596E-01  4.99470E-01  4.14435E-01  3.33542E-01  4.27304E-01  3.56034E-01  3.52772E-01  3.52209E-01  2.84457E-01  3.11258E-01
   2.87275E-01  3.40230E-01  2.84050E-01  2.84340E-01  2.38975E-01  2.85595E-01  2.40147E-01  2.80571E-01  1.95733E-01  2.00523E-01
   1.54835E-01  1.66868E-01  1.99988E-01  2.06588E-01  1.96723E-01  2.01800E-01  2.94699E-01  1.89228E-01  2.44752E-01  3.21218E-01
   3.67056E-01  2.80548E-01  3.05151E-01  2.93094E-01  2.17165E-01  2.48917E-01  2.90500E-01  1.85828E-01  1.18683E-01  1.82577E-01
   1.64016E-01  1.28097E-01  1.61631E-01  2.29190E-01  2.05118E-01  2.48035E-01  1.81213E-01  2.26028E-01  2.06098E-01  1.68761E-01
   1.67438E-01  7.70714E-02  1.49097E-01  1.40319E-01  1.37838E-01  9.80075E-02  1.24576E-01  1.58311E-01  8.57764E-02  9.97923E-02
   1.67472E-01  1.58282E-01  1.31048E-01  1.56427E-01  1.78625E-01  1.68321E-01  1.69746E-01  1.35134E-01  8.43851E-02  1.41076E-01
   1.25240E-01  5.43256E-02  1.08953E-01  3.19039E-02  5.67071E-02  5.66994E-02  1.24988E-02  2.11135E-02 -1.87063E-02  3.44822E-02
  -1.67129E-02 -6.11398E-02 -5.52793E-02 -6.94117E-02 -2.40176E-02  9.91455E-02 -2.89441E-02 -8.14852E-02 -4.00689E-02 -6.42753E-03
  -8.20382E-03  7.23328E-03 -2.89943E-02 -1.45327E-03 -1.60628E-02  6.02251E-02 -4.32870E-02  5.22299E-02  6.29074E-02  4.17858E-02
   1.49713E-03  6.94834E-02  1.42746E-01  7.24335E-02  4.53250E-02  1.28580E-01  1.32626E-01  1.88183E-01  2.04774E-01  2.76519E-01
   2.34836E-01  2.13958E-01  3.05045E-01  3.61043E-01  2.46473E-01  3.28384E-01  2.60200E-01  3.63637E-01  3.87901E-01  3.81990E-01
   3.80189E-01  3.62843E-01  3.65104E-01  4.27339E-01  4.09187E-01  3.71658E-01  4.42573E-01  4.10668E-01  3.63129E-01  3.79654E-01
   3.40923E-01  3.10888E-01  3.24850E-01  3.39934E-01  2.93441E-01  2.89314E-01  2.42865E-01  2.57740E-01  2.22332E-01  1.93731E-01
   2.11895E-01  1.97387E-01  9.70120E-02  1.35841E-01  1.59759E-01  8.84197E-02  8.74414E-02  1.91576E-02  1.58121E-03 -8.11332E-03
   1.07633E-01  2.66657E-02 -3.52935E-03 -3.92755E-02  3.38697E-02 -2.03490E-02 -5.63706E-02 -5.85984E-02 -3.11036E-02 -8.06569E-02
  -8.57490E-02 -1.15960E-03 -4.31634E-02 -6.65767E-02 -6.51496E-02 -3.84010E-02 -8.12706E-02 -1.04652E-01 -8.15624E-02 -4.51955E-02
  -8.24686E-02 -3.49066E-02 -9.16448E-02 -4.24903E-03 -6.33808E-02 -1.04888E-01 -6.16378E-02 -1.00874E-01 -6.43087E-02 -8.90573E-02
  -3.63012E-02 -4.64298E-02 -1.56936E-01 -1.16895E-02 -4.99123E-02 -5.62494E-02 -3.80550E-02 -8.64628E-02 -6.95972E-02 -1.09948E-02
  -5.44328E-02 -8.39475E-02 -6.81922E-02 -2.87427E-03 -7.86942E-02 -5.13219E-02 -4.99588E-02 -1.08503E-01 -3.27266E-02 -7.97648E-02
  -1.15625E-01 -9.51793E-02 -1.13857E-01 -4.54881E-02
 NY points of the fit to the data follow
   2.98661E-01  2.60585E-01  2.29701E-01  2.00078E-01  1.79342E-01  1.62138E-01  1.54112E-01  1.53596E-01  1.58833E-01  1.71952E-01
   1.93906E-01  2.27402E-01  2.75946E-01  3.38737E-01  3.84923E-01  4.65901E-01  6.13456E-01  7.97762E-01  1.01496E+00  1.16872E+00
   1.25748E+00  1.27039E+00  1.30895E+00  1.38230E+00  1.44229E+00  1.47145E+00  1.46175E+00  1.34925E+00  1.23939E+00  1.11790E+00
   9.82552E-01  8.55133E-01  7.55502E-01  6.52998E-01  5.77549E-01  5.27298E-01  4.89956E-01  4.76671E-01  4.82246E-01  4.97807E-01
   5.19323E-01  5.44583E-01  5.71543E-01  5.96766E-01  6.18859E-01  6.54143E-01  6.95812E-01  7.39307E-01  7.71908E-01  8.04243E-01
   8.39444E-01  8.89592E-01  9.50321E-01  1.00693E+00  1.05993E+00  1.09899E+00  1.14002E+00  1.17462E+00  1.19294E+00  1.19444E+00
   1.16701E+00  1.12180E+00  1.07899E+00  1.03967E+00  1.01392E+00  9.88618E-01  9.68920E-01  9.51681E-01  9.31794E-01  9.18946E-01
   9.00368E-01  8.75315E-01  8.51464E-01  8.28704E-01  8.07205E-01  7.93597E-01  7.88612E-01  8.07695E-01  8.68422E-01  9.67399E-01
   1.07531E+00  1.15726E+00  1.18388E+00  1.14856E+00  1.06685E+00  9.60994E-01  8.53001E-01  7.58101E-01  6.84948E-01  6.41456E-01
   6.18089E-01  6.10946E-01  6.46994E-01  7.33633E-01  8.71400E-01  1.04786E+00  1.21772E+00  1.35594E+00  1.43921E+00  1.49610E+00
   1.51420E+00  1.49647E+00  1.44909E+00  1.36701E+00  1.25267E+00  1.13862E+00  1.02380E+00  9.17386E-01  8.27152E-01  7.68681E-01
   7.28723E-01  7.12586E-01  7.09243E-01  7.08612E-01  7.05305E-01  7.05135E-01  7.04134E-01  6.98416E-01  6.89768E-01  6.75979E-01
   6.51481E-01  6.23244E-01  5.97349E-01  5.76889E-01  5.62688E-01  5.54566E-01  5.42673E-01  5.25697E-01  5.06718E-01  4.85741E-01
   4.67230E-01  4.52544E-01  4.46679E-01  4.50688E-01  4.59777E-01  4.73162E-01  4.83347E-01  4.88887E-01  4.88176E-01  4.90457E-01
   4.97544E-01  5.09569E-01  5.17814E-01  5.15245E-01  4.96410E-01  4.64375E-01  4.28830E-01  3.94762E-01  3.64898E-01  3.48655E-01
   3.43663E-01  3.54879E-01  3.83396E-01  4.15827E-01  4.46301E-01  4.81769E-01  5.27282E-01  5.77472E-01  6.22967E-01  6.61487E-01
   6.91405E-01  7.16151E-01  7.49289E-01  7.86848E-01  8.25659E-01  8.58273E-01  8.93986E-01  1.00583E+00  1.18869E+00  1.43565E+00
   1.66044E+00  1.80918E+00  1.84494E+00  1.77924E+00  1.67159E+00  1.52067E+00  1.33818E+00  1.18515E+00  1.02540E+00  8.89026E-01
   7.91240E-01  7.03787E-01  6.35179E-01  5.84597E-01  5.47964E-01  5.21407E-01  5.03144E-01  4.90452E-01  4.83006E-01  4.80210E-01
   4.81166E-01  4.84877E-01  4.91302E-01  5.04429E-01  5.23068E-01  5.42812E-01  5.60215E-01  5.72784E-01  5.85691E-01  6.06681E-01
   6.49316E-01  7.21782E-01  8.03497E-01  8.77853E-01  1.07109E+00  1.33273E+00  1.68078E+00  2.07113E+00  2.44221E+00  2.73366E+00
   2.88089E+00  2.90642E+00  2.78238E+00  2.49195E+00  2.21708E+00  1.90424E+00  1.58794E+00  1.36195E+00  1.15175E+00  9.74885E-01
   8.57889E-01  7.66980E-01  6.97019E-01  6.46999E-01  6.10450E-01  5.84974E-01  5.68601E-01  5.57545E-01  5.51754E-01  5.53392E-01
   5.51565E-01  5.47728E-01  5.35425E-01  5.13298E-01  4.86900E-01  4.59187E-01  4.36321E-01  4.20408E-01  4.09897E-01  4.02353E-01
   3.93452E-01  3.83064E-01  3.70257E-01  3.57597E-01  3.45663E-01  3.33532E-01  3.24896E-01  3.18304E-01  3.14383E-01  3.13578E-01
   3.13636E-01  3.14213E-01  3.16558E-01  3.20837E-01  3.28102E-01  3.39271E-01  3.52260E-01  3.66076E-01  3.87046E-01  4.24268E-01
   4.62821E-01  4.95159E-01  5.03508E-01  4.88485E-01  4.50319E-01  4.08861E-01  3.93758E-01  4.06311E-01  4.43310E-01  4.90974E-01
   5.11576E-01  5.05367E-01  4.72289E-01  4.24292E-01  3.71915E-01  3.18908E-01  2.76339E-01  2.41310E-01  2.14304E-01  2.00513E-01
   1.90934E-01  1.84917E-01  1.91676E-01  2.05984E-01  2.26283E-01  2.63851E-01  3.09707E-01  3.66101E-01  4.16037E-01  4.59026E-01
   4.81342E-01  4.69235E-01  4.65911E-01  4.73644E-01  4.99284E-01  5.50487E-01  5.96358E-01  6.34713E-01  6.55011E-01  6.64352E-01
   6.60224E-01  6.40055E-01  6.21986E-01  5.95841E-01  5.60364E-01  5.19269E-01  4.75520E-01  4.34871E-01  4.05167E-01  3.91069E-01
   3.83381E-01  3.87195E-01  3.96145E-01  4.06839E-01  4.24442E-01  4.37856E-01  4.37890E-01  4.44933E-01  4.66659E-01  5.06343E-01
   5.63856E-01  6.18151E-01  6.64795E-01  6.94853E-01  7.22298E-01  7.47196E-01  7.52633E-01  7.64685E-01  7.90757E-01  8.18928E-01
   8.60663E-01  8.82758E-01  8.97497E-01  8.95866E-01  8.85826E-01  8.71952E-01  8.42167E-01  8.10105E-01  7.82607E-01  7.47866E-01
   7.25536E-01  6.98271E-01  6.65594E-01  6.53546E-01  6.75801E-01  7.47985E-01  8.61857E-01  1.01379E+00  1.18555E+00  1.34251E+00
   1.45646E+00  1.50876E+00  1.47822E+00  1.38793E+00  1.27427E+00  1.14411E+00  1.00903E+00  8.98306E-01  8.15386E-01  7.73145E-01
   7.95441E-01  8.56942E-01  9.39622E-01  1.01896E+00  1.07640E+00  1.10594E+00  1.10395E+00  1.07850E+00  1.04054E+00  9.90103E-01
   9.44196E-01  9.09390E-01  8.89757E-01  8.85697E-01  8.89457E-01  8.95372E-01  9.00924E-01  9.06611E-01  9.10615E-01  9.09858E-01
   9.06492E-01  9.03712E-01  9.05387E-01  9.13652E-01  9.28228E-01  9.43309E-01  9.59170E-01  9.77916E-01  9.90642E-01  9.99570E-01
   1.00029E+00  9.91741E-01  9.78953E-01  9.66811E-01  9.62672E-01  9.72560E-01  9.99597E-01  1.03999E+00  1.08394E+00  1.12880E+00
   1.16857E+00  1.20071E+00  1.22732E+00  1.23848E+00  1.23762E+00  1.23778E+00  1.24396E+00  1.26702E+00  1.30187E+00  1.34119E+00
   1.38730E+00  1.45853E+00  1.55443E+00  1.67468E+00  1.80461E+00  1.96252E+00  2.12228E+00  2.20047E+00  2.38692E+00  2.85688E+00
   3.47389E+00  4.21425E+00  4.67621E+00  4.86362E+00  4.62731E+00  4.22179E+00  3.77473E+00  3.19976E+00  2.67150E+00  2.29818E+00
   1.86150E+00  1.61645E+00  1.41172E+00  1.22113E+00  1.07531E+00  9.61244E-01  8.68317E-01  7.95456E-01  7.37859E-01  6.96919E-01
   6.70754E-01  6.55231E-01  6.47764E-01  6.47106E-01  6.51669E-01  6.57827E-01  6.62230E-01  6.61133E-01  6.51872E-01  6.35721E-01
   6.15420E-01  5.92828E-01  5.71430E-01  5.53767E-01  5.39804E-01  5.32550E-01  5.31607E-01  5.37483E-01  5.49099E-01  5.65101E-01
   5.81558E-01  5.97971E-01  6.11221E-01  6.21140E-01  6.28661E-01  6.34194E-01  6.37897E-01  6.42974E-01  6.48677E-01  6.57158E-01
   6.68128E-01  6.81707E-01  6.96703E-01  7.12456E-01  7.28518E-01  7.43803E-01  7.58370E-01  7.72480E-01  7.85256E-01  7.97444E-01
   8.08564E-01  8.18741E-01  8.28242E-01  8.37122E-01  8.45197E-01  8.52283E-01  8.58047E-01  8.62235E-01  8.64860E-01  8.65812E-01
   8.64954E-01  8.62511E-01  8.58405E-01  8.52776E-01  8.45802E-01  8.37542E-01  8.28132E-01  8.17709E-01  8.06428E-01  7.94434E-01
   7.81858E-01  7.68844E-01  7.55524E-01  7.42017E-01  7.28442E-01  7.14907E-01  7.01501E-01  6.88315E-01  6.75411E-01  6.62840E-01
   6.50633E-01  6.38812E-01  6.27380E-01  6.16330E-01  6.05640E-01  5.95283E-01  5.85221E-01  5.75404E-01  5.65779E-01  5.56291E-01
   5.46884E-01  5.37510E-01  5.28120E-01  5.18668E-01  5.09110E-01  4.99408E-01  4.89528E-01  4.79445E-01  4.69143E-01  4.58613E-01
   4.47852E-01  4.36869E-01  4.25679E-01  4.14303E-01  4.02769E-01  3.91112E-01  3.79371E-01  3.67589E-01  3.55814E-01  3.44096E-01
   3.32490E-01  3.21052E-01  3.09834E-01  2.98898E-01  2.88296E-01  2.78085E-01  2.68331E-01  2.59108E-01  2.50499E-01  2.42602E-01
