 LCModel (Version 6.3-0D) Copyright: S.W. Provencher.          Ref.: Magn. Reson. Med. 30:672-679 (1993).                
 S09_PRESS_35
 Data of: Dept of Radiology, The Johns Hopkins University School of Medicine
 17-March-2020  16:35
 32 lines in following concentration table = NCONC+1
    Conc.  %SD /Cr+PCr  Metabolite                                         
    1.576  40%   0.681 Asc                                                 
    9.534  12%   4.121 Asp                                                 
    4.475  16%   1.934 Cr                                                  
    2.089  31%   0.903 GABA                                                
    2.108  21%   0.911 GPC                                                 
    2.651   9%   1.146 GSH                                                 
    3.896  23%   1.684 Gln                                                 
   21.691   5%   9.375 Glu                                                 
   16.455   4%   7.112 Ins                                                 
    0.000 999%   0.000 Lac                                                 
   22.264   3%   9.623 NAA                                                 
    3.159  14%   1.365 NAAG                                                
    1.065  41%   0.460 PCh                                                 
   14.034   6%   6.066 PCr                                                 
    2.988  42%   1.291 PE                                                  
    0.579  17%   0.250 Scyllo                                              
    3.407  24%   1.473 Tau                                                 
    4.906   9%   2.121 -CrCH2                                              
    3.172   3%   1.371 PCh+GPC                                             
   18.510   2%   8.000 Cr+PCr                                              
   25.423   2%  10.988 NAA+NAAG                                            
   25.586   6%  11.059 Glu+Gln                                             
   17.000  28%   7.348 Lip13a                                              
    0.000 999%   0.000 Lip13b                                              
    5.517  54%   2.385 Lip09                                               
   16.143  22%   6.977 MM09                                                
    7.784  17%   3.364 Lip20                                               
   12.407  32%   5.363 MM20                                                
    8.623  26%   3.727 MM12                                                
    0.143 999% 6.2E-02 MM14                                                
   13.151  31%   5.684 MM17                                                
   6 lines in following misc. output table
  FWHM = 0.033 ppm    S/N =  46                                            
  Data shift = 0.005 ppm                                                   
  Ph:   6 deg       1.0 deg/ppm                                            
  alphaB,S = 3.0E-02,   4.0E-01                                            
   26 spline knots.   Ns = 9(1)                                            
   3 inflections.     1 extrema                                            
  734 points on ppm-axis = NY
      4.000000     3.995223     3.990446     3.985669     3.980892     3.976115     3.971338     3.966561     3.961784     3.957007
      3.952230     3.947453     3.942677     3.937900     3.933123     3.928346     3.923569     3.918792     3.914015     3.909238
      3.904461     3.899684     3.894907     3.890130     3.885353     3.880576     3.875799     3.871022     3.866245     3.861468
      3.856691     3.851914     3.847137     3.842360     3.837584     3.832807     3.828030     3.823253     3.818476     3.813699
      3.808922     3.804145     3.799368     3.794591     3.789814     3.785037     3.780260     3.775483     3.770706     3.765929
      3.761152     3.756375     3.751598     3.746821     3.742044     3.737267     3.732491     3.727714     3.722937     3.718160
      3.713383     3.708606     3.703829     3.699052     3.694275     3.689498     3.684721     3.679944     3.675167     3.670390
      3.665613     3.660836     3.656059     3.651282     3.646505     3.641728     3.636951     3.632174     3.627398     3.622621
      3.617844     3.613067     3.608290     3.603513     3.598736     3.593959     3.589182     3.584405     3.579628     3.574851
      3.570074     3.565297     3.560520     3.555743     3.550966     3.546189     3.541412     3.536635     3.531858     3.527081
      3.522305     3.517528     3.512751     3.507974     3.503197     3.498420     3.493643     3.488866     3.484089     3.479312
      3.474535     3.469758     3.464981     3.460204     3.455427     3.450650     3.445873     3.441096     3.436319     3.431542
      3.426765     3.421988     3.417212     3.412435     3.407658     3.402881     3.398104     3.393327     3.388550     3.383773
      3.378996     3.374219     3.369442     3.364665     3.359888     3.355111     3.350334     3.345557     3.340780     3.336003
      3.331226     3.326449     3.321672     3.316895     3.312119     3.307342     3.302565     3.297788     3.293011     3.288234
      3.283457     3.278680     3.273903     3.269126     3.264349     3.259572     3.254795     3.250018     3.245241     3.240464
      3.235687     3.230910     3.226133     3.221356     3.216579     3.211802     3.207026     3.202249     3.197472     3.192695
      3.187918     3.183141     3.178364     3.173587     3.168810     3.164033     3.159256     3.154479     3.149702     3.144925
      3.140148     3.135371     3.130594     3.125817     3.121040     3.116263     3.111486     3.106709     3.101933     3.097156
      3.092379     3.087602     3.082825     3.078048     3.073271     3.068494     3.063717     3.058940     3.054163     3.049386
      3.044609     3.039832     3.035055     3.030278     3.025501     3.020724     3.015947     3.011170     3.006393     3.001616
      2.996840     2.992063     2.987286     2.982509     2.977732     2.972955     2.968178     2.963401     2.958624     2.953847
      2.949070     2.944293     2.939516     2.934739     2.929962     2.925185     2.920408     2.915631     2.910854     2.906077
      2.901300     2.896523     2.891747     2.886970     2.882193     2.877416     2.872639     2.867862     2.863085     2.858308
      2.853531     2.848754     2.843977     2.839200     2.834423     2.829646     2.824869     2.820092     2.815315     2.810538
      2.805761     2.800984     2.796207     2.791430     2.786654     2.781877     2.777100     2.772323     2.767546     2.762769
      2.757992     2.753215     2.748438     2.743661     2.738884     2.734107     2.729330     2.724553     2.719776     2.714999
      2.710222     2.705445     2.700668     2.695891     2.691114     2.686337     2.681561     2.676784     2.672007     2.667230
      2.662453     2.657676     2.652899     2.648122     2.643345     2.638568     2.633791     2.629014     2.624237     2.619460
      2.614683     2.609906     2.605129     2.600352     2.595575     2.590798     2.586021     2.581244     2.576468     2.571691
      2.566914     2.562137     2.557360     2.552583     2.547806     2.543029     2.538252     2.533475     2.528698     2.523921
      2.519144     2.514367     2.509590     2.504813     2.500036     2.495259     2.490482     2.485705     2.480928     2.476151
      2.471375     2.466598     2.461821     2.457044     2.452267     2.447490     2.442713     2.437936     2.433159     2.428382
      2.423605     2.418828     2.414051     2.409274     2.404497     2.399720     2.394943     2.390166     2.385389     2.380612
      2.375835     2.371058     2.366282     2.361505     2.356728     2.351951     2.347174     2.342397     2.337620     2.332843
      2.328066     2.323289     2.318512     2.313735     2.308958     2.304181     2.299404     2.294627     2.289850     2.285073
      2.280296     2.275519     2.270742     2.265965     2.261189     2.256412     2.251635     2.246858     2.242081     2.237304
      2.232527     2.227750     2.222973     2.218196     2.213419     2.208642     2.203865     2.199088     2.194311     2.189534
      2.184757     2.179980     2.175203     2.170426     2.165649     2.160872     2.156096     2.151319     2.146542     2.141765
      2.136988     2.132211     2.127434     2.122657     2.117880     2.113103     2.108326     2.103549     2.098772     2.093995
      2.089218     2.084441     2.079664     2.074887     2.070110     2.065333     2.060556     2.055779     2.051003     2.046226
      2.041449     2.036672     2.031895     2.027118     2.022341     2.017564     2.012787     2.008010     2.003233     1.998456
      1.993679     1.988902     1.984125     1.979348     1.974571     1.969794     1.965017     1.960240     1.955463     1.950686
      1.945910     1.941133     1.936356     1.931579     1.926802     1.922025     1.917248     1.912471     1.907694     1.902917
      1.898140     1.893363     1.888586     1.883809     1.879032     1.874255     1.869478     1.864701     1.859924     1.855147
      1.850370     1.845593     1.840816     1.836040     1.831263     1.826486     1.821709     1.816932     1.812155     1.807378
      1.802601     1.797824     1.793047     1.788270     1.783493     1.778716     1.773939     1.769162     1.764385     1.759608
      1.754831     1.750054     1.745277     1.740500     1.735723     1.730947     1.726170     1.721393     1.716616     1.711839
      1.707062     1.702285     1.697508     1.692731     1.687954     1.683177     1.678400     1.673623     1.668846     1.664069
      1.659292     1.654515     1.649738     1.644961     1.640184     1.635407     1.630630     1.625854     1.621077     1.616300
      1.611523     1.606746     1.601969     1.597192     1.592415     1.587638     1.582861     1.578084     1.573307     1.568530
      1.563753     1.558976     1.554199     1.549422     1.544645     1.539868     1.535091     1.530314     1.525537     1.520761
      1.515984     1.511207     1.506430     1.501653     1.496876     1.492099     1.487322     1.482545     1.477768     1.472991
      1.468214     1.463437     1.458660     1.453883     1.449106     1.444329     1.439552     1.434775     1.429998     1.425221
      1.420444     1.415668     1.410891     1.406114     1.401337     1.396560     1.391783     1.387006     1.382229     1.377452
      1.372675     1.367898     1.363121     1.358344     1.353567     1.348790     1.344013     1.339236     1.334459     1.329682
      1.324905     1.320128     1.315351     1.310575     1.305798     1.301021     1.296244     1.291467     1.286690     1.281913
      1.277136     1.272359     1.267582     1.262805     1.258028     1.253251     1.248474     1.243697     1.238920     1.234143
      1.229366     1.224589     1.219812     1.215035     1.210258     1.205482     1.200705     1.195928     1.191151     1.186374
      1.181597     1.176820     1.172043     1.167266     1.162489     1.157712     1.152935     1.148158     1.143381     1.138604
      1.133827     1.129050     1.124273     1.119496     1.114719     1.109942     1.105165     1.100389     1.095612     1.090835
      1.086058     1.081281     1.076504     1.071727     1.066950     1.062173     1.057396     1.052619     1.047842     1.043065
      1.038288     1.033511     1.028734     1.023957     1.019180     1.014403     1.009626     1.004849     1.000072     0.995296
      0.990519     0.985742     0.980965     0.976188     0.971411     0.966634     0.961857     0.957080     0.952303     0.947526
      0.942749     0.937972     0.933195     0.928418     0.923641     0.918864     0.914087     0.909310     0.904533     0.899756
      0.894979     0.890203     0.885426     0.880649     0.875872     0.871095     0.866318     0.861541     0.856764     0.851987
      0.847210     0.842433     0.837656     0.832879     0.828102     0.823325     0.818548     0.813771     0.808994     0.804217
      0.799440     0.794663     0.789886     0.785110     0.780333     0.775556     0.770779     0.766002     0.761225     0.756448
      0.751671     0.746894     0.742117     0.737340     0.732563     0.727786     0.723009     0.718232     0.713455     0.708678
      0.703901     0.699124     0.694347     0.689570     0.684793     0.680017     0.675240     0.670463     0.665686     0.660909
      0.656132     0.651355     0.646578     0.641801     0.637024     0.632247     0.627470     0.622693     0.617916     0.613139
      0.608362     0.603585     0.598808     0.594031     0.589254     0.584477     0.579700     0.574924     0.570147     0.565370
      0.560593     0.555816     0.551039     0.546262     0.541485     0.536708     0.531931     0.527154     0.522377     0.517600
      0.512823     0.508046     0.503269     0.498492
 NY phased data points follow
   1.22844E-01  1.95873E-01  1.33969E-01  1.64602E-01  1.89221E-01  1.62140E-01  2.20223E-01  2.28035E-01  2.50749E-01  2.90842E-01
   3.00630E-01  3.43014E-01  4.09944E-01  4.85284E-01  5.57363E-01  6.24565E-01  7.30776E-01  9.09103E-01  1.03282E+00  1.13575E+00
   1.20074E+00  1.36825E+00  1.40781E+00  1.49560E+00  1.51453E+00  1.43911E+00  1.33904E+00  1.29226E+00  1.21927E+00  1.03019E+00
   9.71114E-01  8.97550E-01  7.88423E-01  7.85515E-01  7.23178E-01  6.82296E-01  6.75434E-01  6.53136E-01  6.30285E-01  6.75520E-01
   6.56288E-01  6.20475E-01  6.83998E-01  7.12639E-01  7.20681E-01  7.68571E-01  8.47671E-01  8.64223E-01  8.18087E-01  8.34794E-01
   8.56957E-01  9.46140E-01  9.90245E-01  1.02688E+00  9.96667E-01  1.13183E+00  1.21715E+00  1.22522E+00  1.19559E+00  1.19682E+00
   1.19156E+00  1.04628E+00  1.00986E+00  9.33015E-01  9.65929E-01  1.00623E+00  9.94302E-01  1.08410E+00  1.06616E+00  9.81877E-01
   9.30139E-01  8.88760E-01  8.85119E-01  8.31659E-01  8.78152E-01  8.18150E-01  8.56125E-01  8.69171E-01  9.95171E-01  1.01641E+00
   1.15507E+00  1.24018E+00  1.19907E+00  1.18693E+00  1.16403E+00  1.01391E+00  9.16067E-01  8.71663E-01  7.33227E-01  7.45079E-01
   7.36835E-01  6.98510E-01  7.97955E-01  8.61365E-01  9.88619E-01  1.11208E+00  1.31810E+00  1.45336E+00  1.49238E+00  1.50517E+00
   1.60869E+00  1.53293E+00  1.42012E+00  1.28778E+00  1.15826E+00  1.06835E+00  8.74156E-01  7.98832E-01  7.55566E-01  6.44814E-01
   6.41138E-01  6.28392E-01  6.02306E-01  6.76649E-01  6.45478E-01  6.34218E-01  6.10946E-01  6.49953E-01  6.68762E-01  6.73443E-01
   6.20778E-01  5.89382E-01  5.39234E-01  5.49822E-01  5.13998E-01  5.36832E-01  5.04191E-01  4.67719E-01  5.17445E-01  4.92462E-01
   4.91465E-01  4.14690E-01  4.10412E-01  4.33031E-01  4.36976E-01  4.59048E-01  4.48082E-01  4.16373E-01  4.91011E-01  5.45002E-01
   5.07506E-01  5.17307E-01  5.08081E-01  5.27445E-01  5.03933E-01  4.37042E-01  4.08974E-01  3.98863E-01  4.13172E-01  3.43326E-01
   3.76592E-01  4.11537E-01  3.80470E-01  4.17330E-01  4.52450E-01  4.83832E-01  5.92160E-01  6.64292E-01  7.05629E-01  7.23081E-01
   7.21352E-01  8.39548E-01  8.37393E-01  9.27409E-01  9.48738E-01  1.03088E+00  1.05090E+00  1.19611E+00  1.31642E+00  1.49676E+00
   1.73398E+00  1.84552E+00  1.89238E+00  1.81922E+00  1.67270E+00  1.48467E+00  1.32872E+00  1.17869E+00  9.32440E-01  8.45779E-01
   7.45337E-01  6.84979E-01  6.14186E-01  5.34499E-01  5.13987E-01  5.08667E-01  4.53251E-01  4.50897E-01  4.61472E-01  4.48483E-01
   4.58095E-01  4.18485E-01  4.11132E-01  4.01408E-01  4.25074E-01  4.62957E-01  4.80321E-01  5.46431E-01  5.55496E-01  6.54292E-01
   7.29211E-01  8.94410E-01  9.65557E-01  1.14484E+00  1.36027E+00  1.58173E+00  1.89918E+00  2.33568E+00  2.60995E+00  2.82444E+00
   2.95881E+00  2.88613E+00  2.70962E+00  2.45011E+00  2.13059E+00  1.76109E+00  1.53935E+00  1.27260E+00  1.12924E+00  9.86309E-01
   8.33481E-01  7.98819E-01  7.33509E-01  6.08233E-01  5.74341E-01  6.23706E-01  5.44947E-01  4.88176E-01  5.67516E-01  5.33320E-01
   5.16218E-01  5.06273E-01  5.03449E-01  5.01667E-01  4.50036E-01  4.86797E-01  4.70432E-01  4.13469E-01  3.91606E-01  3.99778E-01
   3.45042E-01  3.17701E-01  3.60879E-01  3.53936E-01  3.53728E-01  2.90605E-01  2.82113E-01  2.84058E-01  3.24599E-01  2.98887E-01
   2.77631E-01  2.64735E-01  2.51065E-01  2.90754E-01  3.11854E-01  2.49694E-01  3.21575E-01  4.12717E-01  3.47376E-01  3.34068E-01
   3.95230E-01  4.41072E-01  4.98169E-01  4.27436E-01  4.45657E-01  3.76073E-01  3.52035E-01  3.72818E-01  3.82160E-01  3.99554E-01
   3.83394E-01  4.38257E-01  4.70177E-01  3.81994E-01  3.45062E-01  3.13754E-01  2.69687E-01  2.61180E-01  2.51977E-01  2.02551E-01
   1.55723E-01  2.17021E-01  2.32575E-01  2.59713E-01  2.57615E-01  2.60440E-01  3.62804E-01  3.51190E-01  4.96152E-01  4.47726E-01
   4.50292E-01  5.07157E-01  4.88130E-01  4.79092E-01  5.47728E-01  5.65708E-01  5.57385E-01  6.12308E-01  6.97983E-01  6.83081E-01
   6.20714E-01  6.52700E-01  5.59308E-01  5.62392E-01  5.31997E-01  4.81655E-01  4.24905E-01  4.26071E-01  4.42467E-01  3.86360E-01
   3.96491E-01  3.88149E-01  4.20702E-01  4.11741E-01  4.43810E-01  4.56293E-01  4.74949E-01  4.90340E-01  5.21175E-01  5.84838E-01
   6.02374E-01  6.19228E-01  6.47234E-01  6.74042E-01  6.79240E-01  7.17171E-01  7.07735E-01  7.14990E-01  7.25346E-01  8.14535E-01
   8.36750E-01  8.55264E-01  8.56980E-01  8.05471E-01  7.97906E-01  7.86665E-01  7.08840E-01  7.11773E-01  6.74370E-01  7.47133E-01
   7.41377E-01  7.10770E-01  7.54454E-01  7.81173E-01  8.66975E-01  9.27793E-01  1.04214E+00  1.07448E+00  1.26585E+00  1.28929E+00
   1.35123E+00  1.33922E+00  1.33978E+00  1.23523E+00  1.19141E+00  1.11256E+00  1.09131E+00  9.24712E-01  9.05884E-01  9.14263E-01
   9.63225E-01  9.19477E-01  9.58608E-01  1.03870E+00  1.08822E+00  1.11283E+00  1.12647E+00  1.16693E+00  1.16934E+00  1.11235E+00
   1.08033E+00  1.10611E+00  1.00752E+00  9.89242E-01  9.64946E-01  9.26176E-01  9.97217E-01  9.55685E-01  9.58527E-01  9.41441E-01
   9.88465E-01  9.78838E-01  9.60581E-01  9.48216E-01  9.38178E-01  1.02289E+00  9.62775E-01  9.80735E-01  9.56455E-01  9.97948E-01
   9.74026E-01  9.67340E-01  9.36581E-01  1.02806E+00  9.92904E-01  1.02583E+00  1.01266E+00  1.08231E+00  1.15306E+00  1.19951E+00
   1.26616E+00  1.27787E+00  1.36677E+00  1.29387E+00  1.35389E+00  1.35114E+00  1.39730E+00  1.46342E+00  1.57911E+00  1.61167E+00
   1.65354E+00  1.75530E+00  1.85832E+00  2.09193E+00  2.23788E+00  2.48484E+00  2.59212E+00  2.72736E+00  2.94871E+00  3.24626E+00
   3.66591E+00  4.03004E+00  4.33594E+00  4.36727E+00  4.22226E+00  3.85548E+00  3.45855E+00  2.98646E+00  2.50660E+00  2.16660E+00
   1.79109E+00  1.56634E+00  1.36272E+00  1.19868E+00  1.13133E+00  9.23023E-01  8.03311E-01  7.70576E-01  7.38077E-01  6.64844E-01
   6.10371E-01  5.89208E-01  5.57577E-01  5.69035E-01  5.47567E-01  5.21696E-01  5.04931E-01  4.72091E-01  5.18395E-01  5.20388E-01
   4.76658E-01  4.93685E-01  4.96264E-01  4.90721E-01  4.92459E-01  5.24232E-01  4.88185E-01  4.49667E-01  4.48273E-01  4.42118E-01
   4.82304E-01  4.69219E-01  4.73190E-01  4.96944E-01  4.16099E-01  4.91698E-01  4.44268E-01  5.07096E-01  4.83872E-01  4.68040E-01
   4.88036E-01  4.36849E-01  4.85573E-01  4.70593E-01  4.68226E-01  4.31833E-01  5.09322E-01  4.13697E-01  4.21109E-01  4.55377E-01
   4.38056E-01  4.09073E-01  4.66635E-01  4.32997E-01  4.46353E-01  4.32710E-01  4.08296E-01  4.51032E-01  4.31014E-01  3.93742E-01
   4.45999E-01  4.33248E-01  4.56449E-01  3.86595E-01  4.41851E-01  3.58094E-01  4.17052E-01  3.94879E-01  3.50943E-01  4.08196E-01
   3.81866E-01  4.47511E-01  3.88871E-01  3.74594E-01  3.46736E-01  4.08526E-01  3.21101E-01  3.11297E-01  2.88991E-01  3.35767E-01
   2.48542E-01  2.87713E-01  2.51248E-01  2.58093E-01  2.11035E-01  1.77804E-01  1.94332E-01  1.65696E-01  1.70259E-01  1.49671E-01
   1.82730E-01  1.60896E-01  1.55793E-01  1.37088E-01  1.22057E-01  1.84705E-01  1.26638E-01  1.74289E-01  1.29268E-01  1.39339E-01
   1.38574E-01  1.80891E-01  9.84339E-02  1.18018E-01  1.34935E-01  1.51988E-01  1.34287E-01  1.64364E-01  2.03687E-01  2.09422E-01
   1.56698E-01  1.29800E-01  2.20177E-01  1.95839E-01  2.22970E-01  2.95535E-01  2.22624E-01  2.75772E-01  2.12050E-01  3.11004E-01
   2.80043E-01  2.83945E-01  3.12343E-01  3.65167E-01  3.87413E-01  3.42625E-01  3.10273E-01  3.47976E-01  3.63516E-01  3.28332E-01
   3.79024E-01  3.58904E-01  3.78306E-01  3.05136E-01  3.00278E-01  3.79491E-01  3.39283E-01  3.74092E-01  2.72195E-01  3.10588E-01
   3.60729E-01  3.13894E-01  3.67675E-01  2.69391E-01  2.32450E-01  2.93742E-01  2.07824E-01  2.62084E-01  2.49366E-01  2.25335E-01
   2.12000E-01  2.16066E-01  2.03814E-01  2.21932E-01  1.98173E-01  1.57634E-01  2.02861E-01  1.88106E-01  1.78002E-01  2.13349E-01
   2.22558E-01  1.98574E-01  1.60939E-01  1.43675E-01  2.35580E-01  1.59279E-01  2.16875E-01  1.78729E-01  1.34278E-01  1.18641E-01
   1.37926E-01  1.48393E-01  9.60877E-02  1.46890E-01  1.35811E-01  5.59023E-02  3.77788E-02  2.21453E-02  9.09726E-02  4.73064E-02
   3.35286E-02  7.21091E-03  2.67793E-02 -1.82163E-02  5.43402E-02 -2.73428E-02  7.81156E-04  3.97194E-02 -1.11581E-03  1.22559E-02
   7.80385E-02  9.27234E-02  5.12024E-02  5.11083E-02  6.83467E-02  8.95611E-02  1.20534E-01  9.49975E-02  2.32015E-01  1.81057E-01
   3.18360E-01  3.01875E-01  2.66148E-01  3.31425E-01  3.52510E-01  3.38286E-01  3.49709E-01  3.27555E-01  3.98684E-01  4.48309E-01
   3.87086E-01  4.48568E-01  4.11454E-01  4.26814E-01  4.72824E-01  4.77394E-01  4.85764E-01  4.88281E-01  5.33756E-01  5.07376E-01
   5.16887E-01  5.64400E-01  5.18433E-01  5.34384E-01  5.23602E-01  5.04422E-01  5.64125E-01  4.72980E-01  4.95470E-01  4.84024E-01
   4.70673E-01  5.02581E-01  3.79557E-01  3.95247E-01  4.31501E-01  4.30375E-01  3.70790E-01  3.14910E-01  2.80392E-01  3.02580E-01
   3.09412E-01  2.66270E-01  2.88052E-01  1.96298E-01  2.13375E-01  1.88005E-01  1.86372E-01  2.10892E-01  1.92927E-01  1.51956E-01
   1.58027E-01  1.66469E-01  8.86840E-02  8.43250E-02  1.26640E-01  1.02397E-01  9.35339E-02  1.06194E-01  1.00855E-01  4.03430E-02
   8.94607E-02  1.23479E-02  3.99722E-03  4.09421E-02  7.02363E-02  1.11076E-02  5.40136E-02 -8.96804E-03  3.35433E-02  8.83920E-02
   2.48373E-02  8.27065E-02  6.54282E-02 -2.43075E-02  4.28824E-02  5.14082E-02  5.82914E-03  2.04241E-02  2.30946E-03  3.92325E-02
  -1.20126E-02  5.41098E-02  2.09661E-02  3.09839E-02 -3.06824E-02  3.24673E-03 -1.24014E-02 -7.52136E-03  4.16779E-04  1.96106E-02
  -4.98539E-02 -2.35824E-02 -1.09039E-02 -2.52047E-02 -2.15420E-02 -1.53884E-02 -2.03767E-02 -4.42805E-02 -4.95015E-02  1.81790E-02
  -1.30621E-02 -1.15909E-02  1.16242E-02 -3.15468E-02
 NY points of the fit to the data follow
   2.46790E-01  2.20169E-01  2.00577E-01  1.91546E-01  1.86516E-01  1.86620E-01  1.92699E-01  2.08434E-01  2.30050E-01  2.52324E-01
   2.82751E-01  3.35619E-01  4.13445E-01  4.93097E-01  5.65858E-01  6.46263E-01  7.32207E-01  8.42217E-01  9.94367E-01  1.14022E+00
   1.25998E+00  1.37278E+00  1.44234E+00  1.45861E+00  1.47897E+00  1.44538E+00  1.38158E+00  1.30605E+00  1.20227E+00  1.08482E+00
   1.00222E+00  9.17795E-01  8.32560E-01  7.58058E-01  6.93104E-01  6.42244E-01  6.11879E-01  5.92547E-01  5.87146E-01  5.95975E-01
   6.15770E-01  6.39879E-01  6.62421E-01  6.87563E-01  7.15328E-01  7.46085E-01  7.79950E-01  8.08558E-01  8.30415E-01  8.56995E-01
   8.88305E-01  9.29148E-01  9.84135E-01  1.04126E+00  1.09798E+00  1.15464E+00  1.19436E+00  1.21899E+00  1.22672E+00  1.20478E+00
   1.16380E+00  1.11585E+00  1.06589E+00  1.02786E+00  1.00639E+00  9.88466E-01  9.77002E-01  9.68041E-01  9.52776E-01  9.31701E-01
   9.09408E-01  8.85150E-01  8.68116E-01  8.58741E-01  8.55796E-01  8.61410E-01  8.84240E-01  9.29816E-01  1.00325E+00  1.09330E+00
   1.17717E+00  1.23069E+00  1.23448E+00  1.18717E+00  1.10147E+00  9.94080E-01  8.90360E-01  8.08911E-01  7.49588E-01  7.10250E-01
   6.97383E-01  7.14307E-01  7.64170E-01  8.59582E-01  9.94688E-01  1.13919E+00  1.27755E+00  1.39610E+00  1.46673E+00  1.49504E+00
   1.49928E+00  1.45702E+00  1.38727E+00  1.29745E+00  1.19084E+00  1.07352E+00  9.71867E-01  8.76705E-01  7.93740E-01  7.38139E-01
   7.05810E-01  6.87489E-01  6.82736E-01  6.84970E-01  6.82618E-01  6.79054E-01  6.76567E-01  6.68322E-01  6.55759E-01  6.37308E-01
   6.11057E-01  5.81045E-01  5.51768E-01  5.26858E-01  5.07676E-01  4.96370E-01  4.88733E-01  4.83635E-01  4.77819E-01  4.69214E-01
   4.55781E-01  4.42989E-01  4.34425E-01  4.32745E-01  4.39334E-01  4.51278E-01  4.64365E-01  4.75520E-01  4.83270E-01  4.90485E-01
   4.98876E-01  5.08920E-01  5.16183E-01  5.13591E-01  4.98312E-01  4.72854E-01  4.40087E-01  4.05391E-01  3.76711E-01  3.57645E-01
   3.53206E-01  3.65882E-01  3.88314E-01  4.20834E-01  4.64927E-01  5.11850E-01  5.63800E-01  6.21388E-01  6.69123E-01  7.10182E-01
   7.53967E-01  7.96019E-01  8.46578E-01  9.06365E-01  9.44241E-01  9.89699E-01  1.06545E+00  1.17738E+00  1.34640E+00  1.55215E+00
   1.72300E+00  1.83391E+00  1.87072E+00  1.80167E+00  1.66915E+00  1.50765E+00  1.32141E+00  1.14897E+00  9.98696E-01  8.69475E-01
   7.70725E-01  7.00370E-01  6.32705E-01  5.70586E-01  5.20085E-01  4.83567E-01  4.56089E-01  4.35448E-01  4.22438E-01  4.15377E-01
   4.12207E-01  4.12958E-01  4.17738E-01  4.27113E-01  4.42505E-01  4.64601E-01  4.95170E-01  5.36956E-01  5.94715E-01  6.77563E-01
   7.90386E-01  9.12721E-01  1.02667E+00  1.16396E+00  1.35004E+00  1.58915E+00  1.91496E+00  2.28389E+00  2.59788E+00  2.83491E+00
   2.95664E+00  2.88534E+00  2.70281E+00  2.45427E+00  2.11811E+00  1.80563E+00  1.52768E+00  1.27697E+00  1.09361E+00  9.68746E-01
   8.44584E-01  7.45128E-01  6.70949E-01  6.09614E-01  5.63497E-01  5.31669E-01  5.11029E-01  4.99074E-01  4.94157E-01  4.95286E-01
   4.99305E-01  5.00608E-01  4.96169E-01  4.84089E-01  4.64140E-01  4.41172E-01  4.18034E-01  3.98999E-01  3.86579E-01  3.79384E-01
   3.73077E-01  3.66778E-01  3.59703E-01  3.49077E-01  3.36637E-01  3.24324E-01  3.13029E-01  3.05716E-01  3.01910E-01  3.00672E-01
   3.02157E-01  3.05756E-01  3.10063E-01  3.16303E-01  3.24522E-01  3.33184E-01  3.41508E-01  3.54947E-01  3.75999E-01  4.02483E-01
   4.34373E-01  4.62760E-01  4.73964E-01  4.66383E-01  4.44496E-01  4.14402E-01  3.95334E-01  3.97295E-01  4.15668E-01  4.40909E-01
   4.60684E-01  4.64933E-01  4.44815E-01  4.05790E-01  3.57156E-01  3.00333E-01  2.53614E-01  2.18515E-01  1.93710E-01  1.81240E-01
   1.80331E-01  1.81635E-01  1.86884E-01  1.98784E-01  2.24076E-01  2.62878E-01  3.12054E-01  3.69557E-01  4.24036E-01  4.60754E-01
   4.82196E-01  4.89737E-01  4.89949E-01  4.99556E-01  5.19161E-01  5.45173E-01  5.74519E-01  6.02592E-01  6.18420E-01  6.22481E-01
   6.19650E-01  6.04716E-01  5.83409E-01  5.57528E-01  5.22771E-01  4.84940E-01  4.50827E-01  4.19723E-01  3.93654E-01  3.79580E-01
   3.74340E-01  3.80548E-01  3.95556E-01  4.14522E-01  4.33425E-01  4.52341E-01  4.69468E-01  4.88416E-01  5.13608E-01  5.49617E-01
   5.89342E-01  6.30554E-01  6.72436E-01  7.09033E-01  7.33413E-01  7.54564E-01  7.69800E-01  7.85711E-01  8.04181E-01  8.25005E-01
   8.46009E-01  8.63977E-01  8.72902E-01  8.70497E-01  8.54183E-01  8.31417E-01  8.03376E-01  7.75599E-01  7.50224E-01  7.33116E-01
   7.23148E-01  7.19035E-01  7.26856E-01  7.49764E-01  7.87206E-01  8.58691E-01  9.60209E-01  1.07464E+00  1.19879E+00  1.30757E+00
   1.36661E+00  1.38372E+00  1.35484E+00  1.28138E+00  1.19254E+00  1.09802E+00  1.00399E+00  9.32886E-01  8.88747E-01  8.73004E-01
   8.93292E-01  9.42869E-01  1.00434E+00  1.06400E+00  1.11078E+00  1.13899E+00  1.14194E+00  1.12666E+00  1.09928E+00  1.06557E+00
   1.03225E+00  1.00411E+00  9.80586E-01  9.62598E-01  9.48749E-01  9.39322E-01  9.34381E-01  9.32541E-01  9.33974E-01  9.36799E-01
   9.38563E-01  9.42804E-01  9.48749E-01  9.55308E-01  9.65666E-01  9.79752E-01  9.93449E-01  1.00821E+00  1.02152E+00  1.02919E+00
   1.03352E+00  1.03450E+00  1.03321E+00  1.03678E+00  1.04827E+00  1.06786E+00  1.09738E+00  1.13349E+00  1.17169E+00  1.21146E+00
   1.24800E+00  1.27568E+00  1.29615E+00  1.31174E+00  1.32570E+00  1.34878E+00  1.38514E+00  1.42939E+00  1.47915E+00  1.54071E+00
   1.62310E+00  1.73267E+00  1.88540E+00  2.07985E+00  2.29088E+00  2.46565E+00  2.59652E+00  2.74144E+00  2.95298E+00  3.25606E+00
   3.66403E+00  4.04918E+00  4.28683E+00  4.36170E+00  4.23220E+00  3.86418E+00  3.44573E+00  2.97450E+00  2.50354E+00  2.11830E+00
   1.80098E+00  1.53238E+00  1.36308E+00  1.22919E+00  1.08372E+00  9.59500E-01  8.62675E-01  7.87811E-01  7.30128E-01  6.85080E-01
   6.51306E-01  6.26100E-01  6.05258E-01  5.86867E-01  5.71622E-01  5.58555E-01  5.47811E-01  5.39214E-01  5.31078E-01  5.22103E-01
   5.12534E-01  5.01764E-01  4.90082E-01  4.78779E-01  4.68165E-01  4.58630E-01  4.50576E-01  4.43792E-01  4.39249E-01  4.37138E-01
   4.37173E-01  4.39089E-01  4.42152E-01  4.44913E-01  4.47507E-01  4.48680E-01  4.48534E-01  4.48219E-01  4.47801E-01  4.47743E-01
   4.48538E-01  4.49756E-01  4.51313E-01  4.53378E-01  4.55013E-01  4.56075E-01  4.57139E-01  4.57792E-01  4.58088E-01  4.58148E-01
   4.57839E-01  4.57287E-01  4.56847E-01  4.56457E-01  4.56024E-01  4.55552E-01  4.54869E-01  4.53637E-01  4.51610E-01  4.48887E-01
   4.45302E-01  4.40896E-01  4.35759E-01  4.29919E-01  4.23408E-01  4.16395E-01  4.08846E-01  4.00736E-01  3.92127E-01  3.83089E-01
   3.73670E-01  3.63908E-01  3.53853E-01  3.43548E-01  3.33039E-01  3.22376E-01  3.11609E-01  3.00792E-01  2.89980E-01  2.79222E-01
   2.68567E-01  2.58070E-01  2.47771E-01  2.37713E-01  2.27937E-01  2.18482E-01  2.09389E-01  2.00697E-01  1.92439E-01  1.84652E-01
   1.77369E-01  1.70622E-01  1.64445E-01  1.58872E-01  1.53936E-01  1.49669E-01  1.46104E-01  1.43269E-01  1.41194E-01  1.39907E-01
   1.39434E-01  1.39796E-01  1.41015E-01  1.43102E-01  1.46070E-01  1.49921E-01  1.54650E-01  1.60244E-01  1.66681E-01  1.73927E-01
   1.81938E-01  1.90659E-01  2.00021E-01  2.09949E-01  2.20349E-01  2.31119E-01  2.42146E-01  2.53310E-01  2.64484E-01  2.75534E-01
