 LCModel (Version 6.3-0D) Copyright: S.W. Provencher.          Ref.: Magn. Reson. Med. 30:672-679 (1993).                
 S03_PRESS_35
 Data of: Dept of Radiology, The Johns Hopkins University School of Medicine
 17-March-2020  16:32
 32 lines in following concentration table = NCONC+1
    Conc.  %SD /Cr+PCr  Metabolite                                         
    1.585  38%   0.681 Asc                                                 
    9.688  11%   4.165 Asp                                                 
    4.118  14%   1.770 Cr                                                  
    2.070  28%   0.890 GABA                                                
    0.873  49%   0.375 GPC                                                 
    2.371  10%   1.019 GSH                                                 
    5.152  17%   2.215 Gln                                                 
   24.495   5%  10.530 Glu                                                 
   15.266   4%   6.563 Ins                                                 
    0.000 999%   0.000 Lac                                                 
   24.598   2%  10.575 NAA                                                 
    1.337  36%   0.575 NAAG                                                
    1.912  22%   0.822 PCh                                                 
   14.491   5%   6.230 PCr                                                 
    6.809  17%   2.927 PE                                                  
    1.007  10%   0.433 Scyllo                                              
    2.495  31%   1.073 Tau                                                 
    5.512   8%   2.369 -CrCH2                                              
    2.784   3%   1.197 PCh+GPC                                             
   18.609   1%   8.000 Cr+PCr                                              
   25.935   1%  11.149 NAA+NAAG                                            
   29.647   5%  12.745 Glu+Gln                                             
    7.518  63%   3.232 Lip13a                                              
    4.363  12%   1.876 Lip13b                                              
    0.767 323%   0.330 Lip09                                               
   14.178  17%   6.095 MM09                                                
    6.026  20%   2.591 Lip20                                               
   22.892  16%   9.841 MM20                                                
    6.484  24%   2.788 MM12                                                
    4.884  52%   2.100 MM14                                                
    0.000 999%   0.000 MM17                                                
   6 lines in following misc. output table
  FWHM = 0.029 ppm    S/N =  52                                            
  Data shift = 0.000 ppm                                                   
  Ph:   3 deg      -0.1 deg/ppm                                            
  alphaB,S = 2.7E-02,   4.0E-01                                            
   26 spline knots.   Ns = 8(1)                                            
   2 inflections.     1 extrema                                            
  734 points on ppm-axis = NY
      4.000000     3.995223     3.990446     3.985669     3.980892     3.976115     3.971338     3.966561     3.961784     3.957007
      3.952230     3.947453     3.942677     3.937900     3.933123     3.928346     3.923569     3.918792     3.914015     3.909238
      3.904461     3.899684     3.894907     3.890130     3.885353     3.880576     3.875799     3.871022     3.866245     3.861468
      3.856691     3.851914     3.847137     3.842360     3.837584     3.832807     3.828030     3.823253     3.818476     3.813699
      3.808922     3.804145     3.799368     3.794591     3.789814     3.785037     3.780260     3.775483     3.770706     3.765929
      3.761152     3.756375     3.751598     3.746821     3.742044     3.737267     3.732491     3.727714     3.722937     3.718160
      3.713383     3.708606     3.703829     3.699052     3.694275     3.689498     3.684721     3.679944     3.675167     3.670390
      3.665613     3.660836     3.656059     3.651282     3.646505     3.641728     3.636951     3.632174     3.627398     3.622621
      3.617844     3.613067     3.608290     3.603513     3.598736     3.593959     3.589182     3.584405     3.579628     3.574851
      3.570074     3.565297     3.560520     3.555743     3.550966     3.546189     3.541412     3.536635     3.531858     3.527081
      3.522305     3.517528     3.512751     3.507974     3.503197     3.498420     3.493643     3.488866     3.484089     3.479312
      3.474535     3.469758     3.464981     3.460204     3.455427     3.450650     3.445873     3.441096     3.436319     3.431542
      3.426765     3.421988     3.417212     3.412435     3.407658     3.402881     3.398104     3.393327     3.388550     3.383773
      3.378996     3.374219     3.369442     3.364665     3.359888     3.355111     3.350334     3.345557     3.340780     3.336003
      3.331226     3.326449     3.321672     3.316895     3.312119     3.307342     3.302565     3.297788     3.293011     3.288234
      3.283457     3.278680     3.273903     3.269126     3.264349     3.259572     3.254795     3.250018     3.245241     3.240464
      3.235687     3.230910     3.226133     3.221356     3.216579     3.211802     3.207026     3.202249     3.197472     3.192695
      3.187918     3.183141     3.178364     3.173587     3.168810     3.164033     3.159256     3.154479     3.149702     3.144925
      3.140148     3.135371     3.130594     3.125817     3.121040     3.116263     3.111486     3.106709     3.101933     3.097156
      3.092379     3.087602     3.082825     3.078048     3.073271     3.068494     3.063717     3.058940     3.054163     3.049386
      3.044609     3.039832     3.035055     3.030278     3.025501     3.020724     3.015947     3.011170     3.006393     3.001616
      2.996840     2.992063     2.987286     2.982509     2.977732     2.972955     2.968178     2.963401     2.958624     2.953847
      2.949070     2.944293     2.939516     2.934739     2.929962     2.925185     2.920408     2.915631     2.910854     2.906077
      2.901300     2.896523     2.891747     2.886970     2.882193     2.877416     2.872639     2.867862     2.863085     2.858308
      2.853531     2.848754     2.843977     2.839200     2.834423     2.829646     2.824869     2.820092     2.815315     2.810538
      2.805761     2.800984     2.796207     2.791430     2.786654     2.781877     2.777100     2.772323     2.767546     2.762769
      2.757992     2.753215     2.748438     2.743661     2.738884     2.734107     2.729330     2.724553     2.719776     2.714999
      2.710222     2.705445     2.700668     2.695891     2.691114     2.686337     2.681561     2.676784     2.672007     2.667230
      2.662453     2.657676     2.652899     2.648122     2.643345     2.638568     2.633791     2.629014     2.624237     2.619460
      2.614683     2.609906     2.605129     2.600352     2.595575     2.590798     2.586021     2.581244     2.576468     2.571691
      2.566914     2.562137     2.557360     2.552583     2.547806     2.543029     2.538252     2.533475     2.528698     2.523921
      2.519144     2.514367     2.509590     2.504813     2.500036     2.495259     2.490482     2.485705     2.480928     2.476151
      2.471375     2.466598     2.461821     2.457044     2.452267     2.447490     2.442713     2.437936     2.433159     2.428382
      2.423605     2.418828     2.414051     2.409274     2.404497     2.399720     2.394943     2.390166     2.385389     2.380612
      2.375835     2.371058     2.366282     2.361505     2.356728     2.351951     2.347174     2.342397     2.337620     2.332843
      2.328066     2.323289     2.318512     2.313735     2.308958     2.304181     2.299404     2.294627     2.289850     2.285073
      2.280296     2.275519     2.270742     2.265965     2.261189     2.256412     2.251635     2.246858     2.242081     2.237304
      2.232527     2.227750     2.222973     2.218196     2.213419     2.208642     2.203865     2.199088     2.194311     2.189534
      2.184757     2.179980     2.175203     2.170426     2.165649     2.160872     2.156096     2.151319     2.146542     2.141765
      2.136988     2.132211     2.127434     2.122657     2.117880     2.113103     2.108326     2.103549     2.098772     2.093995
      2.089218     2.084441     2.079664     2.074887     2.070110     2.065333     2.060556     2.055779     2.051003     2.046226
      2.041449     2.036672     2.031895     2.027118     2.022341     2.017564     2.012787     2.008010     2.003233     1.998456
      1.993679     1.988902     1.984125     1.979348     1.974571     1.969794     1.965017     1.960240     1.955463     1.950686
      1.945910     1.941133     1.936356     1.931579     1.926802     1.922025     1.917248     1.912471     1.907694     1.902917
      1.898140     1.893363     1.888586     1.883809     1.879032     1.874255     1.869478     1.864701     1.859924     1.855147
      1.850370     1.845593     1.840816     1.836040     1.831263     1.826486     1.821709     1.816932     1.812155     1.807378
      1.802601     1.797824     1.793047     1.788270     1.783493     1.778716     1.773939     1.769162     1.764385     1.759608
      1.754831     1.750054     1.745277     1.740500     1.735723     1.730947     1.726170     1.721393     1.716616     1.711839
      1.707062     1.702285     1.697508     1.692731     1.687954     1.683177     1.678400     1.673623     1.668846     1.664069
      1.659292     1.654515     1.649738     1.644961     1.640184     1.635407     1.630630     1.625854     1.621077     1.616300
      1.611523     1.606746     1.601969     1.597192     1.592415     1.587638     1.582861     1.578084     1.573307     1.568530
      1.563753     1.558976     1.554199     1.549422     1.544645     1.539868     1.535091     1.530314     1.525537     1.520761
      1.515984     1.511207     1.506430     1.501653     1.496876     1.492099     1.487322     1.482545     1.477768     1.472991
      1.468214     1.463437     1.458660     1.453883     1.449106     1.444329     1.439552     1.434775     1.429998     1.425221
      1.420444     1.415668     1.410891     1.406114     1.401337     1.396560     1.391783     1.387006     1.382229     1.377452
      1.372675     1.367898     1.363121     1.358344     1.353567     1.348790     1.344013     1.339236     1.334459     1.329682
      1.324905     1.320128     1.315351     1.310575     1.305798     1.301021     1.296244     1.291467     1.286690     1.281913
      1.277136     1.272359     1.267582     1.262805     1.258028     1.253251     1.248474     1.243697     1.238920     1.234143
      1.229366     1.224589     1.219812     1.215035     1.210258     1.205482     1.200705     1.195928     1.191151     1.186374
      1.181597     1.176820     1.172043     1.167266     1.162489     1.157712     1.152935     1.148158     1.143381     1.138604
      1.133827     1.129050     1.124273     1.119496     1.114719     1.109942     1.105165     1.100389     1.095612     1.090835
      1.086058     1.081281     1.076504     1.071727     1.066950     1.062173     1.057396     1.052619     1.047842     1.043065
      1.038288     1.033511     1.028734     1.023957     1.019180     1.014403     1.009626     1.004849     1.000072     0.995296
      0.990519     0.985742     0.980965     0.976188     0.971411     0.966634     0.961857     0.957080     0.952303     0.947526
      0.942749     0.937972     0.933195     0.928418     0.923641     0.918864     0.914087     0.909310     0.904533     0.899756
      0.894979     0.890203     0.885426     0.880649     0.875872     0.871095     0.866318     0.861541     0.856764     0.851987
      0.847210     0.842433     0.837656     0.832879     0.828102     0.823325     0.818548     0.813771     0.808994     0.804217
      0.799440     0.794663     0.789886     0.785110     0.780333     0.775556     0.770779     0.766002     0.761225     0.756448
      0.751671     0.746894     0.742117     0.737340     0.732563     0.727786     0.723009     0.718232     0.713455     0.708678
      0.703901     0.699124     0.694347     0.689570     0.684793     0.680017     0.675240     0.670463     0.665686     0.660909
      0.656132     0.651355     0.646578     0.641801     0.637024     0.632247     0.627470     0.622693     0.617916     0.613139
      0.608362     0.603585     0.598808     0.594031     0.589254     0.584477     0.579700     0.574924     0.570147     0.565370
      0.560593     0.555816     0.551039     0.546262     0.541485     0.536708     0.531931     0.527154     0.522377     0.517600
      0.512823     0.508046     0.503269     0.498492
 NY phased data points follow
   3.27354E-01  2.59679E-01  2.92750E-01  2.87772E-01  3.00191E-01  3.83316E-01  4.08146E-01  3.77647E-01  4.39361E-01  4.02093E-01
   4.48560E-01  4.54577E-01  5.45701E-01  5.99172E-01  6.56825E-01  6.94945E-01  8.19517E-01  9.01584E-01  9.98798E-01  1.09353E+00
   1.25310E+00  1.33983E+00  1.45415E+00  1.50769E+00  1.54737E+00  1.49944E+00  1.47715E+00  1.34780E+00  1.30175E+00  1.18684E+00
   9.99359E-01  9.76365E-01  8.83157E-01  8.10385E-01  7.62187E-01  7.31440E-01  6.70599E-01  6.52695E-01  6.95252E-01  7.26703E-01
   7.08650E-01  7.34891E-01  6.81372E-01  7.90336E-01  8.09669E-01  7.81216E-01  8.39296E-01  8.30971E-01  8.61921E-01  9.44940E-01
   8.94412E-01  9.25683E-01  9.97392E-01  1.02797E+00  1.12870E+00  1.14653E+00  1.24852E+00  1.26622E+00  1.25630E+00  1.22919E+00
   1.16439E+00  1.18405E+00  1.10766E+00  1.05470E+00  9.87028E-01  1.01836E+00  1.01051E+00  1.05814E+00  1.01345E+00  1.03523E+00
   1.01320E+00  9.37639E-01  9.10769E-01  8.41175E-01  7.98998E-01  7.78995E-01  8.33236E-01  8.14813E-01  9.15627E-01  9.32642E-01
   1.02620E+00  1.05141E+00  1.12903E+00  1.13757E+00  1.09166E+00  9.45492E-01  8.49416E-01  7.91283E-01  7.38945E-01  6.63857E-01
   6.56562E-01  6.13044E-01  6.50253E-01  7.29477E-01  8.12728E-01  9.78608E-01  1.15061E+00  1.29006E+00  1.39080E+00  1.45175E+00
   1.44178E+00  1.42699E+00  1.37617E+00  1.29926E+00  1.17684E+00  9.77012E-01  9.48925E-01  7.46980E-01  6.66361E-01  6.22159E-01
   5.93202E-01  5.39375E-01  5.38637E-01  5.16422E-01  5.56427E-01  5.38266E-01  5.64098E-01  5.20307E-01  5.90848E-01  4.86134E-01
   5.13802E-01  5.11774E-01  4.39618E-01  4.73101E-01  4.51125E-01  3.83578E-01  4.73373E-01  4.48126E-01  4.28448E-01  4.22746E-01
   3.94304E-01  3.56317E-01  3.99596E-01  3.58662E-01  3.68343E-01  3.60055E-01  3.82775E-01  4.33379E-01  4.95180E-01  5.00744E-01
   5.43035E-01  5.34845E-01  5.72321E-01  5.88576E-01  6.21576E-01  5.96400E-01  5.01783E-01  4.73256E-01  4.48185E-01  3.77081E-01
   3.82126E-01  3.54186E-01  4.57457E-01  4.40161E-01  4.35029E-01  4.67427E-01  5.61395E-01  6.27816E-01  6.80474E-01  6.56694E-01
   7.64412E-01  7.96416E-01  7.85365E-01  8.59358E-01  8.51864E-01  8.87514E-01  9.41968E-01  1.08570E+00  1.28512E+00  1.40664E+00
   1.56694E+00  1.73444E+00  1.78142E+00  1.77863E+00  1.63776E+00  1.55292E+00  1.34824E+00  1.20735E+00  1.03732E+00  9.02727E-01
   8.51721E-01  7.45466E-01  6.15407E-01  5.62781E-01  5.25879E-01  5.62653E-01  4.37117E-01  4.35308E-01  4.13134E-01  4.64613E-01
   3.79849E-01  4.23061E-01  4.21929E-01  3.80790E-01  4.22003E-01  5.15756E-01  4.21790E-01  5.16352E-01  5.94467E-01  6.27847E-01
   6.73358E-01  7.08599E-01  7.78526E-01  9.40800E-01  1.15546E+00  1.38832E+00  1.70692E+00  2.11061E+00  2.47863E+00  2.83766E+00
   3.02187E+00  3.07987E+00  2.85783E+00  2.68218E+00  2.33846E+00  1.98486E+00  1.73808E+00  1.41296E+00  1.28947E+00  1.08111E+00
   9.24501E-01  8.60363E-01  6.98515E-01  5.83681E-01  5.96830E-01  5.91758E-01  5.47411E-01  5.12913E-01  5.41973E-01  4.67206E-01
   5.55695E-01  5.18088E-01  4.78183E-01  4.74502E-01  4.27686E-01  4.18716E-01  4.13290E-01  3.85316E-01  3.83335E-01  3.59173E-01
   3.51689E-01  3.75926E-01  2.95035E-01  2.75574E-01  2.79198E-01  2.78941E-01  2.70865E-01  2.42830E-01  2.78530E-01  2.65749E-01
   2.62225E-01  2.52481E-01  2.82688E-01  2.26251E-01  2.56485E-01  2.87525E-01  2.75410E-01  2.81352E-01  3.36009E-01  3.30310E-01
   3.72684E-01  3.68023E-01  4.42481E-01  4.32597E-01  4.43785E-01  3.95054E-01  4.26527E-01  3.60867E-01  4.08178E-01  4.15171E-01
   4.39195E-01  5.08317E-01  4.74856E-01  4.24509E-01  4.08656E-01  3.75733E-01  2.91967E-01  2.98812E-01  2.00849E-01  2.19594E-01
   2.12678E-01  1.87071E-01  1.99804E-01  1.60430E-01  1.64146E-01  2.38957E-01  2.84762E-01  3.34213E-01  3.71084E-01  4.47384E-01
   4.47034E-01  4.79392E-01  4.69908E-01  5.63302E-01  4.93345E-01  5.64033E-01  5.61338E-01  6.31632E-01  6.97810E-01  7.91333E-01
   7.30855E-01  7.71274E-01  7.25439E-01  6.48730E-01  5.46111E-01  5.63987E-01  5.64767E-01  4.74281E-01  4.28121E-01  4.36751E-01
   3.57508E-01  3.36357E-01  3.53477E-01  3.74184E-01  3.80837E-01  4.36061E-01  4.72238E-01  4.29127E-01  5.39211E-01  5.44054E-01
   5.90433E-01  6.57502E-01  6.35374E-01  7.12037E-01  6.59041E-01  7.05247E-01  7.46155E-01  7.94650E-01  7.81013E-01  7.81289E-01
   8.45555E-01  7.68745E-01  8.54250E-01  7.89807E-01  8.49033E-01  7.99792E-01  7.47703E-01  7.16225E-01  6.58758E-01  7.27407E-01
   6.40097E-01  6.92249E-01  5.92557E-01  6.25515E-01  6.70773E-01  8.67154E-01  9.28980E-01  1.05365E+00  1.17058E+00  1.35327E+00
   1.45564E+00  1.54298E+00  1.46395E+00  1.40123E+00  1.30683E+00  1.26776E+00  1.09103E+00  1.01057E+00  8.63880E-01  9.05531E-01
   8.13366E-01  8.31112E-01  9.24609E-01  1.02937E+00  1.05018E+00  1.16370E+00  1.17279E+00  1.14144E+00  1.10941E+00  1.15298E+00
   1.12065E+00  1.01890E+00  1.05892E+00  1.02939E+00  9.88523E-01  9.31210E-01  9.38436E-01  9.61423E-01  9.76888E-01  8.90044E-01
   9.06312E-01  9.58698E-01  8.99520E-01  8.73107E-01  9.75366E-01  9.54852E-01  9.00578E-01  9.00523E-01  9.36929E-01  9.92667E-01
   9.81754E-01  1.01122E+00  9.50449E-01  8.65895E-01  9.01486E-01  9.09331E-01  9.83142E-01  1.02310E+00  1.03199E+00  1.13639E+00
   1.18744E+00  1.24832E+00  1.26912E+00  1.27198E+00  1.26266E+00  1.29979E+00  1.33485E+00  1.33904E+00  1.36931E+00  1.40892E+00
   1.41777E+00  1.52510E+00  1.62946E+00  1.66982E+00  1.79507E+00  1.91079E+00  2.07776E+00  2.31702E+00  2.62270E+00  3.02139E+00
   3.56243E+00  4.06262E+00  4.61211E+00  4.92186E+00  5.03586E+00  4.66182E+00  4.11038E+00  3.43911E+00  2.78628E+00  2.31969E+00
   1.93860E+00  1.68943E+00  1.47763E+00  1.29760E+00  1.03604E+00  9.25564E-01  8.11105E-01  7.70577E-01  6.89854E-01  6.66324E-01
   5.52137E-01  5.48792E-01  4.18212E-01  4.64597E-01  4.33892E-01  4.23899E-01  3.95289E-01  3.49364E-01  3.54403E-01  3.62285E-01
   3.49987E-01  3.34829E-01  2.59782E-01  2.62538E-01  2.39715E-01  2.72011E-01  2.95834E-01  2.40672E-01  2.58985E-01  2.40704E-01
   2.12963E-01  2.51106E-01  2.20790E-01  2.30734E-01  1.75433E-01  2.49864E-01  3.13216E-01  1.59874E-01  2.43506E-01  2.22388E-01
   1.91082E-01  1.47455E-01  1.94277E-01  1.91770E-01  1.61208E-01  1.92194E-01  1.26825E-01  1.19604E-01  1.71597E-01  1.50718E-01
   1.20212E-01  1.22968E-01  1.62490E-01  1.00157E-01  1.50377E-01  1.46522E-01  2.03857E-01  1.63834E-01  1.02892E-01  1.63756E-01
   1.65466E-01  1.35658E-01  1.38584E-01  1.14997E-01  1.94231E-01  1.86292E-01  9.77368E-02  1.50066E-01  1.64264E-01  1.32789E-01
   1.19569E-01  1.68754E-01  2.05646E-01  1.77970E-01  2.38273E-01  2.75257E-01  1.81054E-01  2.55217E-01  2.23121E-01  2.54611E-01
   2.11480E-01  1.97706E-01  2.96459E-01  2.72964E-01  2.29350E-01  2.99089E-01  2.47378E-01  3.37881E-01  2.06141E-01  2.67162E-01
   2.50501E-01  2.61251E-01  2.10602E-01  2.35710E-01  2.14262E-01  2.64033E-01  2.04422E-01  2.29475E-01  2.65963E-01  2.88394E-01
   2.76875E-01  2.73311E-01  2.51610E-01  2.51778E-01  2.43920E-01  2.12459E-01  2.31643E-01  2.18448E-01  2.22364E-01  2.59590E-01
   3.40533E-01  2.74177E-01  3.19740E-01  3.36633E-01  3.11339E-01  3.53626E-01  3.14459E-01  3.41004E-01  3.78387E-01  3.73852E-01
   4.05576E-01  3.75913E-01  3.90576E-01  4.03462E-01  4.05680E-01  4.49408E-01  5.09315E-01  4.85519E-01  4.95138E-01  5.54997E-01
   6.11316E-01  6.34311E-01  6.02355E-01  6.44296E-01  6.30519E-01  6.10091E-01  5.51911E-01  5.77950E-01  5.22740E-01  6.26709E-01
   5.45631E-01  4.88167E-01  5.35263E-01  5.41030E-01  4.65528E-01  5.10810E-01  4.62245E-01  4.28043E-01  4.23628E-01  4.10716E-01
   3.90056E-01  3.91623E-01  4.11330E-01  3.35219E-01  3.81562E-01  3.81551E-01  3.80156E-01  3.37125E-01  4.04270E-01  4.19462E-01
   3.70402E-01  3.87394E-01  4.47846E-01  3.23298E-01  3.82145E-01  3.86930E-01  4.08073E-01  4.02818E-01  4.13950E-01  3.62990E-01
   4.22785E-01  2.93774E-01  3.27121E-01  3.16093E-01  3.36940E-01  2.87340E-01  2.95266E-01  2.77502E-01  2.38962E-01  2.30629E-01
   2.53269E-01  2.41476E-01  2.30189E-01  3.09832E-01  2.05131E-01  2.00493E-01  2.24067E-01  2.08854E-01  1.86011E-01  2.37732E-01
   2.26468E-01  1.87722E-01  2.01978E-01  2.03134E-01  2.19123E-01  1.87726E-01  1.99932E-01  2.58416E-01  2.21437E-01  2.19511E-01
   3.12061E-01  2.63732E-01  2.98760E-01  2.86788E-01  2.74549E-01  3.14460E-01  3.09262E-01  3.65332E-01  4.19994E-01  4.44929E-01
   4.30762E-01  4.40734E-01  4.32441E-01  4.71197E-01  4.66014E-01  5.09297E-01  5.67884E-01  5.41460E-01  5.39813E-01  5.56320E-01
   5.22181E-01  5.12477E-01  5.82070E-01  5.62686E-01  6.24466E-01  5.74229E-01  5.90743E-01  6.01384E-01  5.76731E-01  6.04422E-01
   5.58175E-01  5.97017E-01  5.65865E-01  4.49545E-01  5.15733E-01  5.10887E-01  4.25742E-01  4.08167E-01  4.45640E-01  4.44080E-01
   3.84286E-01  3.55686E-01  2.81281E-01  2.62165E-01  2.93652E-01  3.01438E-01  2.99688E-01  2.74405E-01  2.10965E-01  2.16402E-01
   1.36711E-01  1.79422E-01  1.69647E-01  9.96103E-02  1.44732E-01  1.84921E-01  1.61042E-01  1.29235E-01  7.26601E-02  7.57993E-02
   1.48546E-01  6.92497E-02  5.62362E-02  8.01397E-02  5.41521E-02  3.10037E-02  7.69762E-02  4.67601E-02  8.76660E-03  6.39029E-02
   3.09514E-02  8.18239E-02  6.57518E-02  5.61712E-02  6.41384E-03  8.49937E-03  2.61379E-02  5.47742E-02  5.66517E-02  3.60648E-02
  -3.01329E-03 -5.34107E-02 -3.16597E-02  9.84966E-03  2.31073E-02  2.55810E-02  1.45240E-02 -3.93549E-02 -4.55857E-03  5.01173E-03
   1.37692E-02 -6.58854E-03 -1.95725E-02 -1.00909E-02  3.63060E-02  5.89570E-02  2.54512E-02 -2.47079E-02  2.19651E-02 -2.04660E-04
  -1.71304E-02 -4.53433E-03 -3.66491E-02 -4.84413E-02
 NY points of the fit to the data follow
   3.88540E-01  3.70937E-01  3.62978E-01  3.52571E-01  3.50558E-01  3.54366E-01  3.62186E-01  3.73751E-01  3.84557E-01  3.95608E-01
   4.15160E-01  4.56841E-01  5.24477E-01  5.81420E-01  6.36147E-01  7.18128E-01  7.92858E-01  8.90475E-01  9.89060E-01  1.09356E+00
   1.22236E+00  1.36114E+00  1.48721E+00  1.52451E+00  1.54154E+00  1.50420E+00  1.44378E+00  1.38128E+00  1.29066E+00  1.20916E+00
   1.10616E+00  9.93428E-01  8.90429E-01  8.10329E-01  7.48656E-01  6.96973E-01  6.57983E-01  6.27603E-01  6.13139E-01  6.22090E-01
   6.44362E-01  6.76199E-01  7.03292E-01  7.30626E-01  7.59997E-01  7.86551E-01  8.14286E-01  8.36394E-01  8.67379E-01  9.00331E-01
   9.32822E-01  9.64775E-01  1.00273E+00  1.05548E+00  1.11178E+00  1.17823E+00  1.22462E+00  1.26119E+00  1.27558E+00  1.26412E+00
   1.23914E+00  1.19508E+00  1.14683E+00  1.09109E+00  1.04590E+00  1.01304E+00  9.95706E-01  9.88768E-01  9.76233E-01  9.60292E-01
   9.38634E-01  9.08946E-01  8.80348E-01  8.52646E-01  8.29441E-01  8.17263E-01  8.22882E-01  8.54427E-01  9.08571E-01  9.78122E-01
   1.05188E+00  1.11509E+00  1.14523E+00  1.12669E+00  1.05903E+00  9.55627E-01  8.42212E-01  7.43450E-01  6.69529E-01  6.21221E-01
   6.06012E-01  6.19857E-01  6.57671E-01  7.33161E-01  8.37923E-01  9.70289E-01  1.11341E+00  1.24933E+00  1.35147E+00  1.39826E+00
   1.40861E+00  1.36981E+00  1.31085E+00  1.23410E+00  1.14319E+00  1.04296E+00  9.31097E-01  8.28682E-01  7.39400E-01  6.77421E-01
   6.36109E-01  6.14660E-01  6.07406E-01  6.03819E-01  6.04527E-01  6.02659E-01  5.98849E-01  5.90317E-01  5.78976E-01  5.64148E-01
   5.41637E-01  5.15588E-01  4.86747E-01  4.60117E-01  4.38021E-01  4.22031E-01  4.12482E-01  4.07782E-01  4.03130E-01  3.95196E-01
   3.84432E-01  3.74028E-01  3.68339E-01  3.67805E-01  3.75915E-01  3.91425E-01  4.07622E-01  4.26305E-01  4.51093E-01  4.78296E-01
   5.10252E-01  5.43348E-01  5.74485E-01  5.99513E-01  6.07493E-01  5.93154E-01  5.47672E-01  4.92342E-01  4.33994E-01  3.87751E-01
   3.65433E-01  3.61530E-01  3.74625E-01  3.99359E-01  4.34455E-01  4.77038E-01  5.34576E-01  5.91350E-01  6.48886E-01  7.03039E-01
   7.50605E-01  7.92949E-01  8.20994E-01  8.44912E-01  8.48224E-01  8.85746E-01  9.62411E-01  1.06801E+00  1.22766E+00  1.39616E+00
   1.58115E+00  1.73481E+00  1.82084E+00  1.80394E+00  1.68173E+00  1.51978E+00  1.32262E+00  1.15237E+00  1.01561E+00  9.12239E-01
   8.37515E-01  7.49726E-01  6.69579E-01  6.01359E-01  5.47033E-01  5.05850E-01  4.73490E-01  4.52047E-01  4.35899E-01  4.23438E-01
   4.15948E-01  4.13486E-01  4.15302E-01  4.21697E-01  4.33790E-01  4.50717E-01  4.73832E-01  5.04456E-01  5.45267E-01  6.02232E-01
   6.78813E-01  7.61117E-01  8.32780E-01  9.69850E-01  1.17032E+00  1.41033E+00  1.73528E+00  2.09236E+00  2.46981E+00  2.80297E+00
   3.02542E+00  3.05831E+00  2.91234E+00  2.67531E+00  2.33806E+00  2.00057E+00  1.69889E+00  1.43769E+00  1.24011E+00  1.05383E+00
   8.97575E-01  7.87728E-01  6.94331E-01  6.17600E-01  5.60702E-01  5.21986E-01  4.99473E-01  4.86955E-01  4.84986E-01  4.86234E-01
   4.87254E-01  4.85876E-01  4.80471E-01  4.71155E-01  4.51249E-01  4.28527E-01  4.01756E-01  3.78556E-01  3.63029E-01  3.51205E-01
   3.47478E-01  3.44034E-01  3.38950E-01  3.27679E-01  3.11421E-01  2.96365E-01  2.81825E-01  2.72048E-01  2.65618E-01  2.62973E-01
   2.63774E-01  2.65414E-01  2.69783E-01  2.77015E-01  2.86833E-01  2.96031E-01  3.05342E-01  3.27279E-01  3.54016E-01  3.84524E-01
   4.20742E-01  4.51267E-01  4.76057E-01  4.74272E-01  4.59953E-01  4.31813E-01  4.02569E-01  4.01313E-01  4.10675E-01  4.47059E-01
   4.87407E-01  5.15783E-01  5.14836E-01  4.65843E-01  4.07322E-01  3.33319E-01  2.70345E-01  2.23361E-01  1.89404E-01  1.76304E-01
   1.61612E-01  1.54761E-01  1.51945E-01  1.60751E-01  1.85783E-01  2.20073E-01  2.71739E-01  3.29925E-01  3.94603E-01  4.41565E-01
   4.72485E-01  4.91507E-01  4.88727E-01  4.96591E-01  5.04342E-01  5.31200E-01  5.77476E-01  6.25305E-01  6.67781E-01  6.79273E-01
   6.82783E-01  6.66512E-01  6.43213E-01  6.16936E-01  5.78180E-01  5.45504E-01  5.00790E-01  4.52820E-01  4.09605E-01  3.80248E-01
   3.65216E-01  3.62896E-01  3.73147E-01  3.88220E-01  4.02129E-01  4.13710E-01  4.32072E-01  4.54241E-01  4.86364E-01  5.21389E-01
   5.63982E-01  6.15957E-01  6.66194E-01  7.15615E-01  7.37161E-01  7.56274E-01  7.74618E-01  7.88345E-01  8.13413E-01  8.35413E-01
   8.66258E-01  8.95495E-01  9.09394E-01  9.14300E-01  8.94858E-01  8.69543E-01  8.35919E-01  7.97513E-01  7.64530E-01  7.30596E-01
   7.04403E-01  6.77632E-01  6.62606E-01  6.65595E-01  6.88976E-01  7.50861E-01  8.54392E-01  9.90855E-01  1.15613E+00  1.31595E+00
   1.43335E+00  1.50385E+00  1.51078E+00  1.44880E+00  1.33580E+00  1.20144E+00  1.06874E+00  9.54473E-01  8.70144E-01  8.24975E-01
   8.22950E-01  8.53321E-01  9.09586E-01  9.88529E-01  1.06556E+00  1.12537E+00  1.15375E+00  1.14732E+00  1.11976E+00  1.07779E+00
   1.03709E+00  1.00243E+00  9.74638E-01  9.53303E-01  9.35389E-01  9.21522E-01  9.11824E-01  9.04839E-01  9.00862E-01  8.99716E-01
   8.98890E-01  9.00294E-01  9.02987E-01  9.06984E-01  9.17090E-01  9.34290E-01  9.54649E-01  9.75470E-01  9.94578E-01  1.00504E+00
   1.00960E+00  1.00543E+00  9.94911E-01  9.86529E-01  9.83581E-01  9.92081E-01  1.01352E+00  1.05081E+00  1.09644E+00  1.14736E+00
   1.19622E+00  1.23140E+00  1.25559E+00  1.27205E+00  1.27968E+00  1.28583E+00  1.29393E+00  1.30707E+00  1.32920E+00  1.35809E+00
   1.40892E+00  1.47096E+00  1.55311E+00  1.66805E+00  1.81600E+00  1.93511E+00  2.03955E+00  2.32011E+00  2.62255E+00  3.05068E+00
   3.57498E+00  4.08224E+00  4.61420E+00  4.92082E+00  5.00676E+00  4.62262E+00  4.08866E+00  3.45199E+00  2.80208E+00  2.34980E+00
   1.94524E+00  1.71498E+00  1.49984E+00  1.25907E+00  1.07026E+00  9.30622E-01  8.21353E-01  7.34609E-01  6.63251E-01  6.05805E-01
   5.60092E-01  5.23049E-01  4.93675E-01  4.69812E-01  4.49680E-01  4.31722E-01  4.14522E-01  3.98586E-01  3.83105E-01  3.68913E-01
   3.54847E-01  3.39111E-01  3.21785E-01  3.03275E-01  2.85136E-01  2.68852E-01  2.55049E-01  2.43250E-01  2.33959E-01  2.26405E-01
   2.20872E-01  2.17277E-01  2.15245E-01  2.14299E-01  2.12932E-01  2.10417E-01  2.05456E-01  1.99718E-01  1.93195E-01  1.86615E-01
   1.81152E-01  1.76256E-01  1.72740E-01  1.69841E-01  1.67618E-01  1.65684E-01  1.64144E-01  1.62982E-01  1.61567E-01  1.60333E-01
   1.58975E-01  1.57810E-01  1.56931E-01  1.56212E-01  1.55944E-01  1.56123E-01  1.56668E-01  1.57600E-01  1.58726E-01  1.59932E-01
   1.61215E-01  1.62481E-01  1.63821E-01  1.65236E-01  1.66789E-01  1.68511E-01  1.70349E-01  1.72301E-01  1.74386E-01  1.76609E-01
   1.78958E-01  1.81430E-01  1.84022E-01  1.86724E-01  1.89526E-01  1.92414E-01  1.95377E-01  1.98403E-01  2.01483E-01  2.04607E-01
   2.07765E-01  2.10948E-01  2.14151E-01  2.17367E-01  2.20591E-01  2.23817E-01  2.27041E-01  2.30254E-01  2.33451E-01  2.36623E-01
   2.39761E-01  2.42858E-01  2.45906E-01  2.48896E-01  2.51822E-01  2.54679E-01  2.57462E-01  2.60166E-01  2.62786E-01  2.65318E-01
   2.67763E-01  2.70119E-01  2.72393E-01  2.74595E-01  2.76740E-01  2.78849E-01  2.80953E-01  2.83094E-01  2.85328E-01  2.87728E-01
   2.90386E-01  2.93417E-01  2.96958E-01  3.01171E-01  3.06235E-01  3.12347E-01  3.19715E-01  3.28546E-01  3.39032E-01  3.51334E-01
