 LCModel (Version 6.3-0D) Copyright: S.W. Provencher.          Ref.: Magn. Reson. Med. 30:672-679 (1993).                
 S07_PRESS_35
 Data of: Dept of Radiology, The Johns Hopkins University School of Medicine
 17-March-2020  16:34
 32 lines in following concentration table = NCONC+1
    Conc.  %SD /Cr+PCr  Metabolite                                         
    2.270  27%   0.996 Asc                                                 
    9.428  12%   4.135 Asp                                                 
    4.948  14%   2.170 Cr                                                  
    1.377  47%   0.604 GABA                                                
    2.110  20%   0.925 GPC                                                 
    2.228  11%   0.977 GSH                                                 
    5.741  16%   2.518 Gln                                                 
   23.732   5%  10.409 Glu                                                 
   14.683   4%   6.440 Ins                                                 
    0.000 999%   0.000 Lac                                                 
   20.380   3%   8.939 NAA                                                 
    3.519  13%   1.544 NAAG                                                
    0.666  64%   0.292 PCh                                                 
   13.291   6%   5.830 PCr                                                 
    3.554  34%   1.559 PE                                                  
    0.360  28%   0.158 Scyllo                                              
    3.068  27%   1.345 Tau                                                 
    5.046   9%   2.213 -CrCH2                                              
    2.775   4%   1.217 PCh+GPC                                             
   18.239   2%   8.000 Cr+PCr                                              
   23.899   2%  10.482 NAA+NAAG                                            
   29.473   5%  12.927 Glu+Gln                                             
   21.105  37%   9.257 Lip13a                                              
    0.000 999%   0.000 Lip13b                                              
    5.161  49%   2.264 Lip09                                               
   10.274  28%   4.506 MM09                                                
    6.033  20%   2.646 Lip20                                               
   14.666  26%   6.433 MM20                                                
    4.204  44%   1.844 MM12                                                
    9.005  14%   3.950 MM14                                                
   11.342  26%   4.975 MM17                                                
   6 lines in following misc. output table
  FWHM = 0.033 ppm    S/N =  46                                            
  Data shift = 0.000 ppm                                                   
  Ph:   2 deg      -0.5 deg/ppm                                            
  alphaB,S = 2.7E-02,   4.0E-01                                            
   26 spline knots.   Ns =10(1)                                            
   4 inflections.     3 extrema                                            
  734 points on ppm-axis = NY
      4.000000     3.995223     3.990446     3.985669     3.980892     3.976115     3.971338     3.966561     3.961784     3.957007
      3.952230     3.947453     3.942677     3.937900     3.933123     3.928346     3.923569     3.918792     3.914015     3.909238
      3.904461     3.899684     3.894907     3.890130     3.885353     3.880576     3.875799     3.871022     3.866245     3.861468
      3.856691     3.851914     3.847137     3.842360     3.837584     3.832807     3.828030     3.823253     3.818476     3.813699
      3.808922     3.804145     3.799368     3.794591     3.789814     3.785037     3.780260     3.775483     3.770706     3.765929
      3.761152     3.756375     3.751598     3.746821     3.742044     3.737267     3.732491     3.727714     3.722937     3.718160
      3.713383     3.708606     3.703829     3.699052     3.694275     3.689498     3.684721     3.679944     3.675167     3.670390
      3.665613     3.660836     3.656059     3.651282     3.646505     3.641728     3.636951     3.632174     3.627398     3.622621
      3.617844     3.613067     3.608290     3.603513     3.598736     3.593959     3.589182     3.584405     3.579628     3.574851
      3.570074     3.565297     3.560520     3.555743     3.550966     3.546189     3.541412     3.536635     3.531858     3.527081
      3.522305     3.517528     3.512751     3.507974     3.503197     3.498420     3.493643     3.488866     3.484089     3.479312
      3.474535     3.469758     3.464981     3.460204     3.455427     3.450650     3.445873     3.441096     3.436319     3.431542
      3.426765     3.421988     3.417212     3.412435     3.407658     3.402881     3.398104     3.393327     3.388550     3.383773
      3.378996     3.374219     3.369442     3.364665     3.359888     3.355111     3.350334     3.345557     3.340780     3.336003
      3.331226     3.326449     3.321672     3.316895     3.312119     3.307342     3.302565     3.297788     3.293011     3.288234
      3.283457     3.278680     3.273903     3.269126     3.264349     3.259572     3.254795     3.250018     3.245241     3.240464
      3.235687     3.230910     3.226133     3.221356     3.216579     3.211802     3.207026     3.202249     3.197472     3.192695
      3.187918     3.183141     3.178364     3.173587     3.168810     3.164033     3.159256     3.154479     3.149702     3.144925
      3.140148     3.135371     3.130594     3.125817     3.121040     3.116263     3.111486     3.106709     3.101933     3.097156
      3.092379     3.087602     3.082825     3.078048     3.073271     3.068494     3.063717     3.058940     3.054163     3.049386
      3.044609     3.039832     3.035055     3.030278     3.025501     3.020724     3.015947     3.011170     3.006393     3.001616
      2.996840     2.992063     2.987286     2.982509     2.977732     2.972955     2.968178     2.963401     2.958624     2.953847
      2.949070     2.944293     2.939516     2.934739     2.929962     2.925185     2.920408     2.915631     2.910854     2.906077
      2.901300     2.896523     2.891747     2.886970     2.882193     2.877416     2.872639     2.867862     2.863085     2.858308
      2.853531     2.848754     2.843977     2.839200     2.834423     2.829646     2.824869     2.820092     2.815315     2.810538
      2.805761     2.800984     2.796207     2.791430     2.786654     2.781877     2.777100     2.772323     2.767546     2.762769
      2.757992     2.753215     2.748438     2.743661     2.738884     2.734107     2.729330     2.724553     2.719776     2.714999
      2.710222     2.705445     2.700668     2.695891     2.691114     2.686337     2.681561     2.676784     2.672007     2.667230
      2.662453     2.657676     2.652899     2.648122     2.643345     2.638568     2.633791     2.629014     2.624237     2.619460
      2.614683     2.609906     2.605129     2.600352     2.595575     2.590798     2.586021     2.581244     2.576468     2.571691
      2.566914     2.562137     2.557360     2.552583     2.547806     2.543029     2.538252     2.533475     2.528698     2.523921
      2.519144     2.514367     2.509590     2.504813     2.500036     2.495259     2.490482     2.485705     2.480928     2.476151
      2.471375     2.466598     2.461821     2.457044     2.452267     2.447490     2.442713     2.437936     2.433159     2.428382
      2.423605     2.418828     2.414051     2.409274     2.404497     2.399720     2.394943     2.390166     2.385389     2.380612
      2.375835     2.371058     2.366282     2.361505     2.356728     2.351951     2.347174     2.342397     2.337620     2.332843
      2.328066     2.323289     2.318512     2.313735     2.308958     2.304181     2.299404     2.294627     2.289850     2.285073
      2.280296     2.275519     2.270742     2.265965     2.261189     2.256412     2.251635     2.246858     2.242081     2.237304
      2.232527     2.227750     2.222973     2.218196     2.213419     2.208642     2.203865     2.199088     2.194311     2.189534
      2.184757     2.179980     2.175203     2.170426     2.165649     2.160872     2.156096     2.151319     2.146542     2.141765
      2.136988     2.132211     2.127434     2.122657     2.117880     2.113103     2.108326     2.103549     2.098772     2.093995
      2.089218     2.084441     2.079664     2.074887     2.070110     2.065333     2.060556     2.055779     2.051003     2.046226
      2.041449     2.036672     2.031895     2.027118     2.022341     2.017564     2.012787     2.008010     2.003233     1.998456
      1.993679     1.988902     1.984125     1.979348     1.974571     1.969794     1.965017     1.960240     1.955463     1.950686
      1.945910     1.941133     1.936356     1.931579     1.926802     1.922025     1.917248     1.912471     1.907694     1.902917
      1.898140     1.893363     1.888586     1.883809     1.879032     1.874255     1.869478     1.864701     1.859924     1.855147
      1.850370     1.845593     1.840816     1.836040     1.831263     1.826486     1.821709     1.816932     1.812155     1.807378
      1.802601     1.797824     1.793047     1.788270     1.783493     1.778716     1.773939     1.769162     1.764385     1.759608
      1.754831     1.750054     1.745277     1.740500     1.735723     1.730947     1.726170     1.721393     1.716616     1.711839
      1.707062     1.702285     1.697508     1.692731     1.687954     1.683177     1.678400     1.673623     1.668846     1.664069
      1.659292     1.654515     1.649738     1.644961     1.640184     1.635407     1.630630     1.625854     1.621077     1.616300
      1.611523     1.606746     1.601969     1.597192     1.592415     1.587638     1.582861     1.578084     1.573307     1.568530
      1.563753     1.558976     1.554199     1.549422     1.544645     1.539868     1.535091     1.530314     1.525537     1.520761
      1.515984     1.511207     1.506430     1.501653     1.496876     1.492099     1.487322     1.482545     1.477768     1.472991
      1.468214     1.463437     1.458660     1.453883     1.449106     1.444329     1.439552     1.434775     1.429998     1.425221
      1.420444     1.415668     1.410891     1.406114     1.401337     1.396560     1.391783     1.387006     1.382229     1.377452
      1.372675     1.367898     1.363121     1.358344     1.353567     1.348790     1.344013     1.339236     1.334459     1.329682
      1.324905     1.320128     1.315351     1.310575     1.305798     1.301021     1.296244     1.291467     1.286690     1.281913
      1.277136     1.272359     1.267582     1.262805     1.258028     1.253251     1.248474     1.243697     1.238920     1.234143
      1.229366     1.224589     1.219812     1.215035     1.210258     1.205482     1.200705     1.195928     1.191151     1.186374
      1.181597     1.176820     1.172043     1.167266     1.162489     1.157712     1.152935     1.148158     1.143381     1.138604
      1.133827     1.129050     1.124273     1.119496     1.114719     1.109942     1.105165     1.100389     1.095612     1.090835
      1.086058     1.081281     1.076504     1.071727     1.066950     1.062173     1.057396     1.052619     1.047842     1.043065
      1.038288     1.033511     1.028734     1.023957     1.019180     1.014403     1.009626     1.004849     1.000072     0.995296
      0.990519     0.985742     0.980965     0.976188     0.971411     0.966634     0.961857     0.957080     0.952303     0.947526
      0.942749     0.937972     0.933195     0.928418     0.923641     0.918864     0.914087     0.909310     0.904533     0.899756
      0.894979     0.890203     0.885426     0.880649     0.875872     0.871095     0.866318     0.861541     0.856764     0.851987
      0.847210     0.842433     0.837656     0.832879     0.828102     0.823325     0.818548     0.813771     0.808994     0.804217
      0.799440     0.794663     0.789886     0.785110     0.780333     0.775556     0.770779     0.766002     0.761225     0.756448
      0.751671     0.746894     0.742117     0.737340     0.732563     0.727786     0.723009     0.718232     0.713455     0.708678
      0.703901     0.699124     0.694347     0.689570     0.684793     0.680017     0.675240     0.670463     0.665686     0.660909
      0.656132     0.651355     0.646578     0.641801     0.637024     0.632247     0.627470     0.622693     0.617916     0.613139
      0.608362     0.603585     0.598808     0.594031     0.589254     0.584477     0.579700     0.574924     0.570147     0.565370
      0.560593     0.555816     0.551039     0.546262     0.541485     0.536708     0.531931     0.527154     0.522377     0.517600
      0.512823     0.508046     0.503269     0.498492
 NY phased data points follow
   2.75637E-01  2.19943E-01  2.90947E-01  3.23618E-01  2.61982E-01  3.10505E-01  3.53847E-01  3.69426E-01  3.68436E-01  3.63557E-01
   4.12583E-01  4.07501E-01  4.50618E-01  5.20571E-01  5.84954E-01  6.55239E-01  7.10882E-01  8.27240E-01  9.42667E-01  1.02017E+00
   1.13596E+00  1.23434E+00  1.34462E+00  1.43730E+00  1.52386E+00  1.54028E+00  1.48848E+00  1.37966E+00  1.30997E+00  1.17480E+00
   1.11712E+00  1.03217E+00  9.28678E-01  8.48507E-01  8.14268E-01  7.46588E-01  7.07874E-01  6.61037E-01  7.09341E-01  7.04164E-01
   7.21743E-01  7.79770E-01  7.58558E-01  6.69376E-01  7.80724E-01  8.21282E-01  8.07018E-01  8.35207E-01  8.71054E-01  9.00625E-01
   8.99568E-01  9.73323E-01  9.63942E-01  9.73079E-01  1.11538E+00  1.11891E+00  1.14533E+00  1.15626E+00  1.22476E+00  1.25769E+00
   1.18930E+00  1.10495E+00  1.09935E+00  9.99221E-01  9.88402E-01  9.74692E-01  1.00252E+00  9.94624E-01  1.04591E+00  1.05163E+00
   1.00011E+00  9.50554E-01  9.72450E-01  8.93999E-01  9.05682E-01  8.29359E-01  8.55039E-01  8.63170E-01  8.46299E-01  9.45093E-01
   9.76373E-01  1.00511E+00  1.07113E+00  1.08696E+00  1.04958E+00  1.00231E+00  9.17107E-01  8.76174E-01  8.16180E-01  7.38071E-01
   6.64237E-01  6.44919E-01  7.05811E-01  6.79801E-01  7.71914E-01  8.57621E-01  9.72883E-01  1.15706E+00  1.20431E+00  1.29860E+00
   1.36418E+00  1.34287E+00  1.28733E+00  1.20847E+00  1.13606E+00  1.02635E+00  9.04973E-01  8.08410E-01  7.43418E-01  7.08670E-01
   6.07709E-01  5.69896E-01  5.52760E-01  5.60088E-01  5.10587E-01  5.56481E-01  5.63773E-01  4.93670E-01  5.25181E-01  5.11591E-01
   4.58554E-01  5.08085E-01  4.85954E-01  5.16060E-01  5.43372E-01  4.90600E-01  4.52102E-01  4.89670E-01  4.42135E-01  4.87985E-01
   4.49986E-01  4.45228E-01  4.72932E-01  4.09182E-01  4.07138E-01  4.41057E-01  3.69535E-01  4.06356E-01  4.22636E-01  4.04689E-01
   3.98744E-01  4.38224E-01  4.72947E-01  4.67125E-01  3.71341E-01  4.36119E-01  4.33960E-01  4.18492E-01  3.69951E-01  3.85684E-01
   4.14796E-01  3.79263E-01  4.08991E-01  4.26559E-01  4.47607E-01  5.25297E-01  5.77078E-01  6.37988E-01  6.50454E-01  7.24845E-01
   7.47910E-01  8.16628E-01  8.00089E-01  8.68155E-01  9.46170E-01  1.00718E+00  9.93470E-01  1.02763E+00  1.15171E+00  1.31634E+00
   1.45704E+00  1.58480E+00  1.71746E+00  1.71598E+00  1.63946E+00  1.48210E+00  1.40931E+00  1.23666E+00  1.12000E+00  9.75087E-01
   8.16556E-01  7.73887E-01  7.00113E-01  6.48793E-01  6.17133E-01  5.98961E-01  5.84134E-01  5.05926E-01  5.41674E-01  5.61894E-01
   4.58915E-01  4.74710E-01  5.01142E-01  5.42746E-01  5.54627E-01  5.62214E-01  5.41763E-01  6.17864E-01  6.34149E-01  6.99599E-01
   8.06521E-01  9.44536E-01  1.07933E+00  1.19973E+00  1.24707E+00  1.43709E+00  1.70653E+00  1.94368E+00  2.33653E+00  2.58103E+00
   2.76892E+00  2.82125E+00  2.68485E+00  2.54344E+00  2.25543E+00  2.04584E+00  1.73438E+00  1.53882E+00  1.26977E+00  1.11935E+00
   9.95965E-01  8.89386E-01  7.86723E-01  7.53920E-01  6.61862E-01  6.40408E-01  6.10850E-01  5.20689E-01  5.70507E-01  5.15965E-01
   5.43312E-01  4.89914E-01  5.74468E-01  5.07606E-01  4.76206E-01  4.85510E-01  4.32637E-01  4.44373E-01  3.99141E-01  3.85195E-01
   3.69025E-01  3.33541E-01  3.12342E-01  3.68732E-01  3.48185E-01  2.71651E-01  3.36904E-01  3.41068E-01  3.12770E-01  3.03746E-01
   2.89769E-01  2.94493E-01  2.89583E-01  2.83596E-01  3.05830E-01  3.64357E-01  3.32039E-01  3.45849E-01  3.65954E-01  3.64542E-01
   3.83981E-01  4.36275E-01  4.55182E-01  4.32133E-01  3.96074E-01  4.78149E-01  4.44619E-01  3.75998E-01  3.71712E-01  3.80310E-01
   3.78907E-01  4.41345E-01  3.91058E-01  4.51810E-01  4.17594E-01  4.22004E-01  3.38948E-01  3.60705E-01  2.70079E-01  3.48193E-01
   2.70903E-01  2.76667E-01  3.47576E-01  2.62542E-01  3.05069E-01  2.95145E-01  3.33169E-01  4.06192E-01  4.83575E-01  4.70023E-01
   5.57900E-01  5.51160E-01  5.28033E-01  5.37964E-01  5.66636E-01  5.06886E-01  6.44143E-01  6.16440E-01  6.50014E-01  6.59705E-01
   6.39632E-01  6.53512E-01  6.66382E-01  6.33587E-01  5.94304E-01  5.75350E-01  5.33647E-01  4.64362E-01  4.24538E-01  4.28951E-01
   4.07982E-01  4.69300E-01  4.20445E-01  4.50314E-01  4.61899E-01  5.19875E-01  5.03096E-01  5.09250E-01  5.74449E-01  5.93187E-01
   6.20574E-01  6.63396E-01  7.09983E-01  7.16356E-01  7.62745E-01  8.02911E-01  7.59023E-01  7.57366E-01  8.46393E-01  8.35768E-01
   9.00090E-01  8.67685E-01  8.91421E-01  8.54396E-01  8.34905E-01  8.35112E-01  8.12925E-01  8.01762E-01  7.37999E-01  7.63373E-01
   7.70163E-01  7.70576E-01  8.32050E-01  8.37050E-01  8.34555E-01  8.93739E-01  1.02013E+00  1.01902E+00  1.12483E+00  1.23560E+00
   1.35229E+00  1.32597E+00  1.36231E+00  1.32427E+00  1.32384E+00  1.23833E+00  1.10394E+00  1.01440E+00  9.32211E-01  9.45587E-01
   9.33613E-01  9.05673E-01  9.90219E-01  1.02981E+00  1.09077E+00  1.11093E+00  1.15577E+00  1.13402E+00  1.11591E+00  1.08821E+00
   1.10418E+00  1.08598E+00  1.05909E+00  1.02824E+00  9.97706E-01  9.64871E-01  9.49553E-01  9.86690E-01  9.41548E-01  9.20319E-01
   9.17757E-01  9.59406E-01  9.05954E-01  8.89980E-01  9.37767E-01  9.06975E-01  9.45771E-01  9.68919E-01  9.86197E-01  9.59699E-01
   9.54838E-01  9.72357E-01  9.47872E-01  9.94787E-01  1.03593E+00  9.55363E-01  1.00705E+00  1.01422E+00  1.08148E+00  1.17366E+00
   1.27235E+00  1.29543E+00  1.29822E+00  1.32958E+00  1.36359E+00  1.38620E+00  1.42440E+00  1.49285E+00  1.55514E+00  1.63681E+00
   1.59609E+00  1.71734E+00  1.77388E+00  1.99129E+00  2.20042E+00  2.41271E+00  2.49648E+00  2.63915E+00  2.67001E+00  2.88594E+00
   3.18349E+00  3.50518E+00  3.78689E+00  4.01196E+00  3.89365E+00  3.70592E+00  3.39800E+00  2.97119E+00  2.55415E+00  2.15472E+00
   1.77517E+00  1.53182E+00  1.31424E+00  1.20665E+00  1.05581E+00  1.00153E+00  8.36784E-01  7.57482E-01  6.64360E-01  6.38007E-01
   5.54615E-01  5.64273E-01  4.55512E-01  4.81748E-01  4.89641E-01  4.36651E-01  4.17796E-01  4.36881E-01  4.10829E-01  4.20855E-01
   3.76295E-01  3.56643E-01  3.34453E-01  3.45011E-01  3.28065E-01  3.50605E-01  3.46604E-01  3.05625E-01  2.75021E-01  3.26320E-01
   3.41816E-01  2.84749E-01  3.24934E-01  2.91003E-01  2.90343E-01  2.76301E-01  3.05359E-01  2.96367E-01  2.67158E-01  2.45373E-01
   2.78615E-01  2.68060E-01  2.31429E-01  2.57659E-01  2.92653E-01  3.17223E-01  2.66753E-01  2.56145E-01  2.48665E-01  2.51283E-01
   3.09939E-01  2.59059E-01  3.07936E-01  2.61432E-01  2.90983E-01  2.82999E-01  2.71518E-01  3.11568E-01  3.44181E-01  3.20802E-01
   3.17169E-01  2.81696E-01  3.30010E-01  3.18761E-01  3.15873E-01  3.53026E-01  3.55204E-01  3.79052E-01  3.39448E-01  3.61253E-01
   4.00194E-01  3.75928E-01  3.57348E-01  3.52600E-01  3.61566E-01  3.89297E-01  3.41548E-01  3.36694E-01  3.09348E-01  2.91496E-01
   3.31379E-01  3.14963E-01  3.02650E-01  2.43514E-01  3.01239E-01  2.96538E-01  2.84437E-01  2.79038E-01  2.95686E-01  2.31704E-01
   2.69479E-01  2.47093E-01  2.68817E-01  2.59760E-01  2.31885E-01  2.26301E-01  2.51025E-01  2.07696E-01  2.01261E-01  1.93646E-01
   2.01207E-01  2.03370E-01  2.22201E-01  2.30548E-01  1.95272E-01  2.65988E-01  2.34546E-01  1.93649E-01  2.44387E-01  2.37104E-01
   2.43629E-01  2.64411E-01  2.76624E-01  3.16565E-01  3.34335E-01  3.21003E-01  3.59152E-01  3.15508E-01  3.68616E-01  3.12791E-01
   3.78141E-01  3.79189E-01  3.38014E-01  3.83708E-01  3.19240E-01  3.21995E-01  3.28132E-01  3.15121E-01  2.60484E-01  2.92756E-01
   2.72444E-01  3.22243E-01  3.01813E-01  2.63984E-01  2.47911E-01  2.48574E-01  1.81125E-01  1.89288E-01  9.80228E-02  1.39964E-01
   1.09161E-01  1.37053E-01  1.75870E-01  1.56869E-01  2.13304E-01  2.01346E-01  2.13393E-01  1.81384E-01  1.87114E-01  1.59497E-01
   1.92565E-01  1.35189E-01  1.32569E-01  1.50948E-01  1.45647E-01  1.41954E-01  1.95617E-01  1.51813E-01  1.71129E-01  1.77959E-01
   1.79822E-01  1.59567E-01  2.09546E-01  1.15358E-01  1.20245E-01  1.14659E-01  8.49458E-02  1.53330E-01  1.41372E-01  9.32512E-02
   1.22754E-01  9.50790E-02  1.03608E-01  1.06379E-01  7.79773E-02  1.09989E-01  1.21807E-01  7.99248E-02  1.22079E-01  2.55851E-02
   8.63208E-02  1.04738E-01  9.70659E-02  6.02510E-02  4.04058E-02  7.92039E-02  1.41745E-02  3.65503E-02  1.06666E-01  1.20340E-01
   9.93957E-02  8.82218E-02  1.06284E-01  8.10004E-02  8.09922E-02  1.14890E-01  1.27972E-01  1.19115E-01  1.17796E-01  1.17750E-01
   1.94596E-01  1.47962E-01  2.42310E-01  1.58662E-01  1.81271E-01  2.34105E-01  2.58893E-01  2.93591E-01  3.13157E-01  3.13003E-01
   3.52421E-01  3.28764E-01  3.48870E-01  3.73098E-01  3.71707E-01  3.69124E-01  3.98526E-01  3.94409E-01  4.42939E-01  4.15265E-01
   4.49076E-01  4.48387E-01  4.55114E-01  4.36537E-01  3.74565E-01  4.12947E-01  4.95573E-01  4.16568E-01  4.00500E-01  4.64909E-01
   3.63771E-01  3.60153E-01  3.32362E-01  3.11849E-01  3.48933E-01  3.13534E-01  2.78597E-01  2.43387E-01  2.31699E-01  2.23615E-01
   2.55171E-01  2.21165E-01  1.56179E-01  1.98350E-01  1.02132E-01  1.21186E-01  1.02038E-01  9.40386E-02  7.14080E-02  7.60294E-02
   2.79200E-02  7.19385E-02  4.57588E-02  3.98211E-02  1.60058E-03  2.15423E-03  3.02657E-02 -7.05278E-03  1.03787E-05 -3.97498E-02
  -3.21664E-02  2.21305E-02 -3.88745E-02 -5.51876E-02  3.14323E-02 -5.29482E-02 -4.29379E-03 -3.54368E-02 -1.75793E-02 -4.29427E-02
  -6.41050E-03 -2.11915E-02 -1.80388E-03 -2.54853E-02 -2.09860E-02 -3.79149E-02 -5.32655E-03 -3.02793E-02 -1.49249E-02 -2.67592E-02
  -4.51879E-02 -5.32483E-02 -7.10294E-02 -2.01285E-02 -4.88625E-02 -8.73213E-02 -4.15852E-02 -2.47266E-02 -4.06468E-02 -8.95412E-02
  -6.23936E-02  9.55079E-04 -5.44727E-02 -7.71986E-02 -6.86000E-02 -3.66181E-02 -8.34155E-02 -7.21798E-02 -4.84528E-02 -6.17464E-02
  -6.27752E-02 -4.05558E-02 -3.64578E-02 -4.37987E-02
 NY points of the fit to the data follow
   3.49448E-01  3.30290E-01  3.15591E-01  3.00885E-01  3.04415E-01  3.06843E-01  3.09593E-01  3.15678E-01  3.27267E-01  3.51064E-01
   3.77731E-01  4.02384E-01  4.58159E-01  5.42596E-01  6.14354E-01  6.81888E-01  7.10658E-01  7.89301E-01  8.98046E-01  1.01700E+00
   1.15220E+00  1.28324E+00  1.36156E+00  1.43507E+00  1.48260E+00  1.49765E+00  1.48738E+00  1.42558E+00  1.32305E+00  1.22751E+00
   1.11161E+00  1.03352E+00  9.63192E-01  8.78805E-01  8.05874E-01  7.43712E-01  6.96038E-01  6.74290E-01  6.54086E-01  6.45053E-01
   6.50451E-01  6.73388E-01  6.95783E-01  7.22368E-01  7.47659E-01  7.77693E-01  8.13911E-01  8.41385E-01  8.69738E-01  8.88829E-01
   9.17693E-01  9.50732E-01  9.93585E-01  1.03728E+00  1.08218E+00  1.12248E+00  1.15996E+00  1.19710E+00  1.22347E+00  1.23058E+00
   1.21216E+00  1.17154E+00  1.12116E+00  1.07172E+00  1.03632E+00  1.01003E+00  9.95711E-01  9.86685E-01  9.79425E-01  9.74127E-01
   9.59844E-01  9.37331E-01  9.11585E-01  8.86748E-01  8.68959E-01  8.55874E-01  8.48278E-01  8.54218E-01  8.81371E-01  9.31429E-01
   9.96259E-01  1.05750E+00  1.09103E+00  1.08925E+00  1.05134E+00  9.85219E-01  9.09380E-01  8.29231E-01  7.64318E-01  7.17969E-01
   6.83009E-01  6.70612E-01  6.74121E-01  7.18723E-01  7.90903E-01  8.87696E-01  1.00103E+00  1.10906E+00  1.18748E+00  1.24037E+00
   1.27436E+00  1.27139E+00  1.24456E+00  1.18887E+00  1.11297E+00  1.02536E+00  9.31505E-01  8.53301E-01  7.77321E-01  7.09630E-01
   6.59086E-01  6.26352E-01  6.11296E-01  6.00937E-01  6.00443E-01  5.96193E-01  5.93030E-01  5.87363E-01  5.81880E-01  5.69863E-01
   5.54168E-01  5.33168E-01  5.07768E-01  4.84878E-01  4.65486E-01  4.51225E-01  4.42923E-01  4.37544E-01  4.36194E-01  4.32810E-01
   4.27057E-01  4.18039E-01  4.08002E-01  4.00602E-01  3.98729E-01  4.02695E-01  4.09347E-01  4.21017E-01  4.28359E-01  4.34725E-01
   4.36750E-01  4.37446E-01  4.43539E-01  4.45446E-01  4.43487E-01  4.37458E-01  4.24659E-01  4.07519E-01  3.94428E-01  3.84154E-01
   3.75531E-01  3.80316E-01  3.96225E-01  4.20461E-01  4.56467E-01  4.87067E-01  5.40478E-01  5.90751E-01  6.44133E-01  6.99131E-01
   7.53602E-01  7.95545E-01  8.38279E-01  8.94160E-01  9.44915E-01  9.78157E-01  1.00735E+00  1.04796E+00  1.16249E+00  1.30082E+00
   1.46427E+00  1.60852E+00  1.69478E+00  1.69048E+00  1.62896E+00  1.52436E+00  1.38933E+00  1.24396E+00  1.09546E+00  9.69248E-01
   8.69786E-01  7.86461E-01  7.39207E-01  6.87359E-01  6.31472E-01  5.83273E-01  5.48258E-01  5.24528E-01  5.06139E-01  4.96100E-01
   4.91642E-01  4.90571E-01  4.93033E-01  5.00768E-01  5.14473E-01  5.36262E-01  5.68691E-01  6.14164E-01  6.76402E-01  7.51241E-01
   8.38443E-01  9.68507E-01  1.07700E+00  1.19018E+00  1.30243E+00  1.44875E+00  1.70019E+00  1.97044E+00  2.27802E+00  2.57119E+00
   2.75227E+00  2.79287E+00  2.74021E+00  2.55863E+00  2.30509E+00  2.02379E+00  1.72096E+00  1.47464E+00  1.25976E+00  1.08926E+00
   9.92583E-01  8.78281E-01  7.83435E-01  7.09823E-01  6.44363E-01  5.94897E-01  5.60785E-01  5.35655E-01  5.21307E-01  5.13593E-01
   5.09528E-01  5.09995E-01  5.06299E-01  4.97177E-01  4.84294E-01  4.64074E-01  4.40665E-01  4.18200E-01  4.01435E-01  3.90185E-01
   3.83741E-01  3.77679E-01  3.74414E-01  3.66644E-01  3.57435E-01  3.47431E-01  3.35010E-01  3.24375E-01  3.17135E-01  3.14192E-01
   3.14899E-01  3.16790E-01  3.23392E-01  3.27285E-01  3.30234E-01  3.38678E-01  3.42340E-01  3.50740E-01  3.60677E-01  3.81951E-01
   4.15899E-01  4.41947E-01  4.66438E-01  4.80333E-01  4.66937E-01  4.43035E-01  4.14055E-01  4.05043E-01  4.07784E-01  4.23657E-01
   4.47005E-01  4.69830E-01  4.65848E-01  4.52183E-01  4.24645E-01  3.79573E-01  3.37448E-01  2.97118E-01  2.67616E-01  2.54465E-01
   2.43192E-01  2.51091E-01  2.54491E-01  2.55012E-01  2.67944E-01  2.90596E-01  3.32049E-01  3.82370E-01  4.39428E-01  4.89803E-01
   5.24137E-01  5.38122E-01  5.37984E-01  5.44166E-01  5.54428E-01  5.70509E-01  5.91280E-01  6.13885E-01  6.29257E-01  6.37101E-01
   6.41162E-01  6.33553E-01  6.25558E-01  6.05809E-01  5.79359E-01  5.53367E-01  5.22567E-01  4.93008E-01  4.71139E-01  4.52667E-01
   4.43935E-01  4.45553E-01  4.48251E-01  4.63893E-01  4.85042E-01  4.95747E-01  5.12166E-01  5.23959E-01  5.42519E-01  5.68076E-01
   6.03449E-01  6.43723E-01  6.88408E-01  7.25916E-01  7.63935E-01  7.94654E-01  8.13791E-01  8.25469E-01  8.44839E-01  8.60115E-01
   8.72231E-01  8.81157E-01  8.94541E-01  8.93161E-01  8.82946E-01  8.62527E-01  8.42313E-01  8.24392E-01  8.02346E-01  7.94900E-01
   8.02006E-01  8.01038E-01  8.08123E-01  8.17513E-01  8.37157E-01  8.77807E-01  9.34411E-01  1.02151E+00  1.13762E+00  1.24256E+00
   1.33240E+00  1.39567E+00  1.40543E+00  1.36725E+00  1.29999E+00  1.20967E+00  1.11736E+00  1.02150E+00  9.44747E-01  8.99485E-01
   8.81919E-01  8.99842E-01  9.51244E-01  1.00613E+00  1.05772E+00  1.09718E+00  1.11749E+00  1.12110E+00  1.10636E+00  1.08027E+00
   1.04999E+00  1.01766E+00  9.93450E-01  9.74410E-01  9.57346E-01  9.46397E-01  9.37253E-01  9.31424E-01  9.28783E-01  9.25038E-01
   9.21620E-01  9.21429E-01  9.21181E-01  9.27521E-01  9.34944E-01  9.47943E-01  9.61947E-01  9.82515E-01  1.00326E+00  1.01893E+00
   1.03381E+00  1.04042E+00  1.04121E+00  1.04097E+00  1.04434E+00  1.05514E+00  1.07635E+00  1.10282E+00  1.13616E+00  1.17488E+00
   1.21134E+00  1.25012E+00  1.28365E+00  1.30866E+00  1.32997E+00  1.35363E+00  1.37940E+00  1.42499E+00  1.47274E+00  1.53122E+00
   1.59764E+00  1.69482E+00  1.84418E+00  2.00021E+00  2.19078E+00  2.40943E+00  2.51488E+00  2.62377E+00  2.66288E+00  2.89340E+00
   3.19870E+00  3.51784E+00  3.79288E+00  3.98198E+00  3.90513E+00  3.69021E+00  3.38073E+00  2.97000E+00  2.55499E+00  2.14681E+00
   1.78177E+00  1.54824E+00  1.31395E+00  1.20497E+00  1.10479E+00  9.61942E-01  8.38292E-01  7.44869E-01  6.73114E-01  6.19417E-01
   5.77896E-01  5.47694E-01  5.24014E-01  5.03220E-01  4.84128E-01  4.66307E-01  4.49726E-01  4.35306E-01  4.21189E-01  4.07527E-01
   3.93124E-01  3.79630E-01  3.66486E-01  3.54044E-01  3.41760E-01  3.31765E-01  3.21925E-01  3.12946E-01  3.05252E-01  2.98819E-01
   2.93408E-01  2.89695E-01  2.86258E-01  2.83703E-01  2.81163E-01  2.77976E-01  2.74723E-01  2.71253E-01  2.67502E-01  2.65453E-01
   2.63524E-01  2.62762E-01  2.62770E-01  2.63295E-01  2.64062E-01  2.64887E-01  2.65395E-01  2.66003E-01  2.67095E-01  2.68354E-01
   2.70238E-01  2.72515E-01  2.75453E-01  2.79639E-01  2.84440E-01  2.90050E-01  2.96520E-01  3.03255E-01  3.10140E-01  3.17011E-01
   3.23650E-01  3.30004E-01  3.35891E-01  3.41283E-01  3.46270E-01  3.50621E-01  3.54543E-01  3.57841E-01  3.60324E-01  3.61953E-01
   3.62721E-01  3.62595E-01  3.61538E-01  3.59527E-01  3.56563E-01  3.52661E-01  3.47854E-01  3.42201E-01  3.35766E-01  3.28639E-01
   3.20922E-01  3.12728E-01  3.04179E-01  2.95407E-01  2.86542E-01  2.77724E-01  2.69089E-01  2.60774E-01  2.52912E-01  2.45624E-01
   2.39024E-01  2.33213E-01  2.28277E-01  2.24287E-01  2.21299E-01  2.19350E-01  2.18456E-01  2.18618E-01  2.19814E-01  2.22008E-01
   2.25143E-01  2.29150E-01  2.33941E-01  2.39416E-01  2.45464E-01  2.51967E-01  2.58794E-01  2.65817E-01  2.72900E-01  2.79910E-01
   2.86715E-01  2.93193E-01  2.99225E-01  3.04705E-01  3.09534E-01  3.13630E-01  3.16921E-01  3.19355E-01  3.20892E-01  3.21515E-01
